3997.47168	0.0370193198
3996.04197	0.0370982848
3994.61226	0.0371466391
3993.18255	0.0371614173
3991.75284	0.0371627398
3990.32312	0.0371773466
3988.89341	0.0372182094
3987.46370	0.0372756049
3986.03399	0.0373264663
3984.60428	0.0373529270
3983.17457	0.0373518541
3981.74486	0.0373302437
3980.31515	0.0372934341
3978.88544	0.0372409709
3977.45573	0.0371746123
3976.02602	0.0371080674
3974.59630	0.0370646790
3973.16659	0.0370626189
3971.73688	0.0370983407
3970.30717	0.0371464975
3968.87746	0.0371790119
3967.44775	0.0371843688
3966.01804	0.0371719636
3964.58833	0.0371594131
3963.15862	0.0371558033
3961.72891	0.0371560007
3960.29920	0.0371496566
3958.86948	0.0371323153
3957.43977	0.0371088274
3956.01006	0.0370864123
3954.58035	0.0370678641
3953.15064	0.0370515697
3951.72093	0.0370356403
3950.29122	0.0370192640
3948.86151	0.0370021239
3947.43180	0.0369836055
3946.00209	0.0369674265
3944.57238	0.0369661562
3943.14266	0.0369979814
3941.71295	0.0370713323
3940.28324	0.0371724404
3938.85353	0.0372691490
3937.42382	0.0373288617
3935.99411	0.0373359993
3934.56440	0.0372972675
3933.13469	0.0372346826
3931.70498	0.0371734574
3930.27527	0.0371318348
3928.84556	0.0371176824
3927.41585	0.0371317230
3925.98613	0.0371667445
3924.55642	0.0372078605
3923.12671	0.0372374468
3921.69700	0.0372455679
3920.26729	0.0372394212
3918.83758	0.0372400396
3917.40787	0.0372677073
3915.97816	0.0373242088
3914.54845	0.0373886153
3913.11874	0.0374274105
3911.68903	0.0374112986
3910.25931	0.0373229682
3908.82960	0.0371596962
3907.39989	0.0369352102
3905.97018	0.0366844460
3904.54047	0.0364676379
3903.11076	0.0363588966
3901.68105	0.0364051424
3900.25134	0.0365835615
3898.82163	0.0368133038
3897.39192	0.0370124131
3895.96221	0.0371367708
3894.53249	0.0371838324
3893.10278	0.0371786468
3891.67307	0.0371556059
3890.24336	0.0371402092
3888.81365	0.0371388867
3887.38394	0.0371441320
3885.95423	0.0371481068
3884.52452	0.0371513776
3883.09481	0.0371609367
3881.66510	0.0371784754
3880.23539	0.0371915326
3878.80567	0.0371748395
3877.37596	0.0371057540
3875.94625	0.0369789824
3874.51654	0.0368155316
3873.08683	0.0366599411
3871.65712	0.0365620479
3870.22741	0.0365462229
3868.79770	0.0365994722
3867.36799	0.0366908424
3865.93828	0.0367981456
3864.50857	0.0369085483
3863.07885	0.0369962901
3861.64914	0.0370168388
3860.21943	0.0369276293
3858.78972	0.0367156006
3857.36001	0.0364200063
3855.93030	0.0361557268
3854.50059	0.0361089148
3853.07088	0.0364039876
3851.64117	0.0369282216
3850.21146	0.0374235138
3848.78175	0.0377234928
3847.35203	0.0377969965
3845.92232	0.0376781225
3844.49261	0.0374285094
3843.06290	0.0371354744
3841.63319	0.0369087458
3840.20348	0.0368465520
3838.77377	0.0369745567
3837.34406	0.0372159816
3835.91435	0.0374435782
3834.48464	0.0375750884
3833.05493	0.0376109071
3831.62521	0.0375974998
3830.19550	0.0375727713
3828.76579	0.0375426561
3827.33608	0.0374917164
3825.90637	0.0374115519
3824.47666	0.0373188183
3823.04695	0.0372552983
3821.61724	0.0372676514
3820.18753	0.0373786278
3818.75782	0.0375672132
3817.32811	0.0377787538
3815.89839	0.0379550532
3814.46868	0.0380617939
3813.03897	0.0380933024
3811.60926	0.0380624160
3810.17955	0.0379879959
3808.74984	0.0378872603
3807.32013	0.0377759859
3805.89042	0.0376732387
3804.46071	0.0376015641
3803.03100	0.0375834145
3801.60129	0.0376319066
3800.17157	0.0377424657
3798.74186	0.0378940366
3797.31215	0.0380615965
3795.88244	0.0382263958
3794.45273	0.0383767784
3793.02302	0.0385023467
3791.59331	0.0385917947
3790.16360	0.0386387631
3788.73389	0.0386469699
3787.30418	0.0386320837
3785.87447	0.0386158153
3784.44475	0.0386174284
3783.01504	0.0386498831
3781.58533	0.0387188718
3780.15562	0.0388202816
3778.72591	0.0389332399
3777.29620	0.0390232019
3775.86649	0.0390608683
3774.43678	0.0390398838
3773.00707	0.0389797911
3771.57736	0.0389116667
3770.14765	0.0388607346
3768.71794	0.0388315469
3767.28822	0.0388130918
3765.85851	0.0387951471
3764.42880	0.0387783349
3762.99909	0.0387685113
3761.56938	0.0387674384
3760.13967	0.0387659669
3758.70996	0.0387423337
3757.28025	0.0386694632
3755.85054	0.0385318510
3754.42083	0.0383425914
3752.99112	0.0381535292
3751.56140	0.0380397290
3750.13169	0.0380549580
3748.70198	0.0381960943
3747.27227	0.0384262092
3745.84256	0.0387147963
3744.41285	0.0390300564
3742.98314	0.0393149629
3741.55343	0.0395049043
3740.12372	0.0395697467
3738.69401	0.0395300798
3737.26430	0.0394463912
3735.83458	0.0393958203
3734.40487	0.0394311398
3732.97516	0.0395458713
3731.54545	0.0396924578
3730.11574	0.0398269780
3728.68603	0.0399298668
3727.25632	0.0400038548
3725.82661	0.0400721245
3724.39690	0.0401706994
3722.96719	0.0403224081
3721.53748	0.0405083001
3720.10776	0.0406710990
3718.67805	0.0407513864
3717.24834	0.0407233238
3715.81863	0.0406110100
3714.38892	0.0404889472
3712.95921	0.0404655039
3711.52950	0.0406234860
3710.09979	0.0409375727
3708.67008	0.0412791297
3707.24037	0.0415340438
3705.81066	0.0416831262
3704.38094	0.0417822078
3702.95123	0.0419052020
3701.52152	0.0420945100
3700.09181	0.0423385724
3698.66210	0.0425901674
3697.23239	0.0428042263
3695.80268	0.0429652035
3694.37297	0.0430947952
3692.94326	0.0432499349
3691.51355	0.0435038023
3690.08384	0.0438923724
3688.65412	0.0443612449
3687.22441	0.0447953530
3685.79470	0.0451179557
3684.36499	0.0453243293
3682.93528	0.0454446822
3681.50557	0.0455104187
3680.07586	0.0455572754
3678.64615	0.0456426404
3677.21644	0.0458460115
3675.78673	0.0462280773
3674.35702	0.0467853546
3672.92730	0.0474647246
3671.49759	0.0482157320
3670.06788	0.0490039438
3668.63817	0.0497894920
3667.20846	0.0505315922
3665.77875	0.0512157753
3664.34904	0.0518596172
3662.91933	0.0524892807
3661.48962	0.0531168468
3660.05991	0.0537380241
3658.63020	0.0543436669
3657.20048	0.0549271777
3655.77077	0.0554823279
3654.34106	0.0560116805
3652.91135	0.0565552153
3651.48164	0.0572145246
3650.05193	0.0581136718
3648.62222	0.0592719167
3647.19251	0.0605305545
3645.76280	0.0617017783
3644.33309	0.0627317131
3642.90338	0.0636771098
3641.47366	0.0646096915
3640.04395	0.0655636117
3638.61424	0.0665272623
3637.18453	0.0674587414
3635.75482	0.0683117434
3634.32511	0.0690751299
3632.89540	0.0698129013
3631.46569	0.0706755742
3630.03598	0.0718199015
3628.60627	0.0732397214
3627.17656	0.0747071207
3625.74684	0.0759784281
3624.31713	0.0769948587
3622.88742	0.0778592676
3621.45771	0.0787197798
3620.02800	0.0796824694
3618.59829	0.0807677209
3617.16858	0.0819171369
3615.73887	0.0830527470
3614.30916	0.0841361880
3612.87945	0.0851852968
3611.44974	0.0862514377
3610.02003	0.0873746127
3608.59031	0.0885437727
3607.16060	0.0897008777
3605.73089	0.0907919258
3604.30118	0.0918078125
3602.87147	0.0927789658
3601.44176	0.0937428847
3600.01205	0.0947255567
3598.58234	0.0957389846
3597.15263	0.0967790410
3595.72292	0.0978175104
3594.29321	0.0988113433
3592.86349	0.0997429341
3591.43378	0.1006591246
3590.00407	0.1016602069
3588.57436	0.1028250232
3587.14465	0.1041258648
3585.71494	0.1054270789
3584.28523	0.1065930873
3582.85552	0.1075844169
3581.42581	0.1084506214
3579.99610	0.1092722192
3578.56639	0.1101140454
3577.13667	0.1110020354
3575.70696	0.1119153872
3574.27725	0.1128048822
3572.84754	0.1136362106
3571.41783	0.1144301519
3569.98812	0.1152690277
3568.55841	0.1162502989
3567.12870	0.1174044535
3565.69899	0.1186525375
3564.26928	0.1198671013
3562.83957	0.1209741086
3561.40985	0.1219760850
3559.98014	0.1229108796
3558.55043	0.1238149107
3557.12072	0.1247152090
3555.69101	0.1256302744
3554.26130	0.1265684366
3552.83159	0.1275282055
3551.40188	0.1285082698
3549.97217	0.1295183897
3548.54246	0.1305740029
3547.11275	0.1316730529
3545.68303	0.1327785999
3544.25332	0.1338327974
3542.82361	0.1347956061
3541.39390	0.1356735975
3539.96419	0.1365156323
3538.53448	0.1373796314
3537.10477	0.1382963806
3535.67506	0.1392518878
3534.24535	0.1402021646
3532.81564	0.1411127299
3531.38593	0.1419888288
3529.95621	0.1428688318
3528.52650	0.1437895149
3527.09679	0.1447545588
3525.66708	0.1457354724
3524.23737	0.1466983557
3522.80766	0.1476259977
3521.37795	0.1485174596
3519.94824	0.1493785232
3518.51853	0.1502173394
3517.08882	0.1510460377
3515.65911	0.1518780887
3514.22939	0.1527214199
3512.79968	0.1535748690
3511.36997	0.1544319838
3509.94026	0.1552852094
3508.51055	0.1561280340
3507.08084	0.1569586247
3505.65113	0.1577837020
3504.22142	0.1586149037
3502.79171	0.1594553590
3501.36200	0.1602887958
3499.93229	0.1610916704
3498.50257	0.1618556976
3497.07286	0.1625977159
3495.64315	0.1633419544
3494.21344	0.1640985757
3492.78373	0.1648623347
3491.35402	0.1656295359
3489.92431	0.1664072871
3488.49460	0.1671999693
3487.06489	0.1679919660
3485.63518	0.1687550843
3484.20547	0.1694720685
3482.77575	0.1701506972
3481.34604	0.1708109826
3479.91633	0.1714665741
3478.48662	0.1721216291
3477.05691	0.1727820337
3475.62720	0.1734585613
3474.19749	0.1741552055
3472.76778	0.1748609096
3471.33807	0.1755560488
3469.90836	0.1762267798
3468.47865	0.1768683195
3467.04893	0.1774790734
3465.61922	0.1780594289
3464.18951	0.1786170602
3462.75980	0.1791692674
3461.33009	0.1797311455
3459.90038	0.1803030372
3458.47067	0.1808714420
3457.04096	0.1814204305
3455.61125	0.1819401234
3454.18154	0.1824257970
3452.75183	0.1828767657
3451.32212	0.1833013892
3449.89240	0.1837198734
3448.46269	0.1841554940
3447.03298	0.1846187115
3445.60327	0.1851052195
3444.17356	0.1856084168
3442.74385	0.1861297339
3441.31414	0.1866708100
3439.88443	0.1872192919
3438.45472	0.1877494901
3437.02501	0.1882385164
3435.59530	0.1886806488
3434.16558	0.1890844703
3432.73587	0.1894602329
3431.30616	0.1898141056
3429.87645	0.1901534796
3428.44674	0.1904894263
3427.01703	0.1908323318
3425.58732	0.1911855340
3424.15761	0.1915458888
3422.72790	0.1919088513
3421.29819	0.1922705770
3419.86848	0.1926279664
3418.43876	0.1929784268
3417.00905	0.1933218539
3415.57934	0.1936588883
3414.14963	0.1939858645
3412.71992	0.1942933947
3411.29021	0.1945743710
3409.86050	0.1948338002
3408.43079	0.1950894892
3407.00108	0.1953583956
3405.57137	0.1956455559
3404.14166	0.1959409416
3402.71194	0.1962285489
3401.28223	0.1964945048
3399.85252	0.1967339069
3398.42281	0.1969527900
3396.99310	0.1971637160
3395.56339	0.1973740757
3394.13368	0.1975732893
3392.70397	0.1977336556
3391.27426	0.1978323907
3389.84455	0.1978755444
3388.41484	0.1979023665
3386.98512	0.1979619861
3385.55541	0.1980833560
3384.12570	0.1982625872
3382.69599	0.1984735727
3381.26628	0.1986888349
3379.83657	0.1988953948
3378.40686	0.1990988255
3376.97715	0.1993171871
3375.54744	0.1995689720
3374.11773	0.1998581439
3372.68802	0.2001655996
3371.25830	0.2004544735
3369.82859	0.2006885111
3368.39888	0.2008505166
3366.96917	0.2009482384
3365.53946	0.2010076195
3364.10975	0.2010564357
3362.68004	0.2011138052
3361.25033	0.2011865377
3359.82062	0.2012776583
3358.39091	0.2013976723
3356.96120	0.2015646398
3355.53148	0.2017896771
3354.10177	0.2020572424
3352.67206	0.2023217231
3351.24235	0.2025295198
3349.81264	0.2026535422
3348.38293	0.2027109265
3346.95322	0.2027525455
3345.52351	0.2028314471
3344.09380	0.2029747665
3342.66409	0.2031741738
3341.23438	0.2033943385
3339.80466	0.2035928071
3338.37495	0.2037392259
3336.94524	0.2038313597
3335.51553	0.2038968056
3334.08582	0.2039808482
3332.65611	0.2041241229
3331.22640	0.2043463439
3329.79669	0.2046398371
3328.36698	0.2049753070
3326.93727	0.2053120881
3325.50756	0.2056126595
3324.07784	0.2058579028
3322.64813	0.2060564607
3321.21842	0.2062389702
3319.78871	0.2064412534
3318.35900	0.2066872418
3316.92929	0.2069858164
3315.49958	0.2073383778
3314.06987	0.2077458948
3312.64016	0.2082040459
3311.21045	0.2086931914
3309.78074	0.2091739774
3308.35102	0.2095963061
3306.92131	0.2099200189
3305.49160	0.2101323754
3304.06189	0.2102553546
3302.63218	0.2103370130
3301.20247	0.2104294598
3299.77276	0.2105645835
3298.34305	0.2107404619
3296.91334	0.2109244913
3295.48363	0.2110710442
3294.05392	0.2111390978
3292.62421	0.2111042589
3291.19449	0.2109634429
3289.76478	0.2107348293
3288.33507	0.2104518116
3286.90536	0.2101484537
3285.47565	0.2098439634
3284.04594	0.2095370442
3282.61623	0.2092149556
3281.18652	0.2088695765
3279.75681	0.2085056454
3278.32710	0.2081339806
3276.89739	0.2077555060
3275.46767	0.2073509395
3274.03796	0.2068823576
3272.60825	0.2063077688
3271.17854	0.2056014389
3269.74883	0.2047653347
3268.31912	0.2038306892
3266.88941	0.2028463185
3265.45970	0.2018609941
3264.02999	0.2009107471
3262.60028	0.2000155747
3261.17057	0.1991811693
3259.74085	0.1983990967
3258.31114	0.1976442486
3256.88143	0.1968804002
3255.45172	0.1960786283
3254.02201	0.1952388436
3252.59230	0.1943926215
3251.16259	0.1935827583
3249.73288	0.1928311437
3248.30317	0.1921253055
3246.87346	0.1914311945
3245.44375	0.1907236129
3244.01403	0.1900046766
3242.58432	0.1893013269
3241.15461	0.1886456758
3239.72490	0.1880544424
3238.29519	0.1875195354
3236.86548	0.1870128363
3235.43577	0.1864995211
3234.00606	0.1859555691
3232.57635	0.1853795499
3231.14664	0.1847925037
3229.71693	0.1842245609
3228.28721	0.1836976707
3226.85750	0.1832141578
3225.42779	0.1827596426
3223.99808	0.1823122650
3222.56837	0.1818541437
3221.13866	0.1813756973
3219.70895	0.1808764637
3218.27924	0.1803609878
3216.84953	0.1798370630
3215.41982	0.1793125719
3213.99011	0.1787952334
3212.56039	0.1782922745
3211.13068	0.1778093725
3209.70097	0.1773468107
3208.27126	0.1768979281
3206.84155	0.1764509529
3205.41184	0.1759941429
3203.98213	0.1755201370
3202.55242	0.1750265807
3201.12271	0.1745137721
3199.69300	0.1739849150
3198.26329	0.1734469384
3196.83357	0.1729098707
3195.40386	0.1723833531
3193.97415	0.1718713790
3192.54444	0.1713687032
3191.11473	0.1708629131
3189.68502	0.1703407466
3188.25531	0.1697940230
3186.82560	0.1692228764
3185.39589	0.1686356515
3183.96618	0.1680442095
3182.53647	0.1674579978
3181.10675	0.1668784022
3179.67704	0.1662990302
3178.24733	0.1657093763
3176.81762	0.1651026011
3175.38791	0.1644801497
3173.95820	0.1638518870
3172.52849	0.1632295251
3171.09878	0.1626201868
3169.66907	0.1620201916
3168.23936	0.1614173502
3166.80965	0.1607976109
3165.37993	0.1601534933
3163.95022	0.1594909281
3162.52051	0.1588284820
3161.09080	0.1581913680
3159.66109	0.1576016247
3158.23138	0.1570666432
3156.80167	0.1565730423
3155.37196	0.1560896486
3153.94225	0.1555812657
3152.51254	0.1550246775
3151.08283	0.1544208229
3149.65311	0.1537938714
3148.22340	0.1531789750
3146.79369	0.1526060104
3145.36398	0.1520867348
3143.93427	0.1516102403
3142.50456	0.1511477679
3141.07485	0.1506654173
3139.64514	0.1501404047
3138.21543	0.1495725662
3136.78572	0.1489836723
3135.35601	0.1484020650
3133.92629	0.1478444189
3132.49658	0.1473063529
3131.06687	0.1467720568
3129.63716	0.1462311447
3128.20745	0.1456926763
3126.77774	0.1451819539
3125.34803	0.1447251886
3123.91832	0.1443324089
3122.48861	0.1439891458
3121.05890	0.1436608434
3119.62919	0.1433081627
3118.19948	0.1429042965
3116.76976	0.1424480081
3115.34005	0.1419628412
3113.91034	0.1414817721
3112.48063	0.1410259306
3111.05092	0.1405919343
3109.62121	0.1401618123
3108.19150	0.1397246867
3106.76179	0.1392923445
3105.33208	0.1388918310
3103.90237	0.1385401636
3102.47266	0.1382244527
3101.04294	0.1379069239
3099.61323	0.1375522166
3098.18352	0.1371534765
3096.75381	0.1367367804
3095.32410	0.1363411993
3093.89439	0.1359953433
3092.46468	0.1357042342
3091.03497	0.1354522109
3089.60526	0.1352158338
3088.17555	0.1349741966
3086.74584	0.1347150803
3085.31612	0.1344362348
3083.88641	0.1341407746
3082.45670	0.1338281482
3081.02699	0.1334880441
3079.59728	0.1331037879
3078.16757	0.1326638609
3076.73786	0.1321756691
3075.30815	0.1316672713
3073.87844	0.1311751902
3072.44873	0.1307256371
3071.01902	0.1303206086
3069.58930	0.1299377382
3068.15959	0.1295429766
3066.72988	0.1291072667
3065.30017	0.1286209673
3063.87046	0.1280962229
3062.44075	0.1275595576
3061.01104	0.1270378679
3059.58133	0.1265474707
3058.15162	0.1260897666
3056.72191	0.1256533563
3055.29220	0.1252196431
3053.86248	0.1247702688
3052.43277	0.1242957935
3051.00306	0.1237992123
3049.57335	0.1232937798
3048.14364	0.1227931976
3046.71393	0.1223003939
3045.28422	0.1218039989
3043.85451	0.1212870255
3042.42480	0.1207425594
3040.99509	0.1201825961
3039.56538	0.1196311265
3038.13566	0.1191069260
3036.70595	0.1186078712
3035.27624	0.1181093231
3033.84653	0.1175823063
3032.41682	0.1170145348
3030.98711	0.1164214164
3029.55740	0.1158368438
3028.12769	0.1152940020
3026.69798	0.1148074418
3025.26827	0.1143700257
3023.83856	0.1139639094
3022.40884	0.1135738343
3020.97913	0.1131951064
3019.54942	0.1128302589
3018.11971	0.1124794036
3016.69000	0.1121324226
3015.26029	0.1117685661
3013.83058	0.1113678515
3012.40087	0.1109237596
3010.97116	0.1104518473
3009.54145	0.1099833474
3008.11174	0.1095512882
3006.68202	0.1091763824
3005.25231	0.1088637561
3003.82260	0.1086084843
3002.39289	0.1084032431
3000.96318	0.1082422957
2999.53347	0.1081192940
2998.10376	0.1080248356
2996.67405	0.1079481244
2995.24434	0.1078798920
2993.81463	0.1078158841
2992.38492	0.1077588871
2990.95520	0.1077199355
2989.52549	0.1077166498
2988.09578	0.1077696010
2986.66607	0.1078932658
2985.23636	0.1080877781
2983.80665	0.1083380878
2982.37694	0.1086216196
2980.94723	0.1089196354
2979.51752	0.1092243493
2978.08781	0.1095355675
2976.65810	0.1098531783
2975.22838	0.1101710945
2973.79867	0.1104799882
2972.36896	0.1107747406
2970.93925	0.1110603288
2969.50954	0.1113478467
2968.07983	0.1116433218
2966.65012	0.1119351462
2965.22041	0.1121907011
2963.79070	0.1123659238
2962.36099	0.1124226302
2960.93128	0.1123421565
2959.50157	0.1121283993
2958.07185	0.1117981374
2956.64214	0.1113710999
2955.21243	0.1108658537
2953.78272	0.1103048921
2952.35301	0.1097215563
2950.92330	0.1091608405
2949.49359	0.1086674631
2948.06388	0.1082723513
2946.63417	0.1079826802
2945.20446	0.1077877507
2943.77475	0.1076718718
2942.34503	0.1076263636
2940.91532	0.1076511741
2939.48561	0.1077469438
2938.05590	0.1079037562
2936.62619	0.1080968454
2935.19648	0.1082899570
2933.76677	0.1084449366
2932.33706	0.1085310429
2930.90735	0.1085314751
2929.47764	0.1084451377
2928.04793	0.1082843095
2926.61821	0.1080661044
2925.18850	0.1078019142
2923.75879	0.1074887142
2922.32908	0.1071075276
2920.89937	0.1066317707
2919.46966	0.1060397923
2918.03995	0.1053252593
2916.61024	0.1044996008
2915.18053	0.1035883874
2913.75082	0.1026244536
2912.32111	0.1016438231
2910.89139	0.1006824002
2909.46168	0.0997732207
2908.03197	0.0989412963
2906.60226	0.0981991291
2905.17255	0.0975471064
2903.74284	0.0969760194
2902.31313	0.0964727849
2900.88342	0.0960219577
2899.45371	0.0956067964
2898.02400	0.0952092707
2896.59429	0.0948146805
2895.16457	0.0944171101
2893.73486	0.0940213129
2892.30515	0.0936403945
2890.87544	0.0932898447
2889.44573	0.0929853246
2888.01602	0.0927402824
2886.58631	0.0925637633
2885.15660	0.0924563333
2883.72689	0.0924093798
2882.29718	0.0924091861
2880.86747	0.0924441293
2879.43775	0.0925063938
2878.00804	0.0925818011
2876.57833	0.0926382169
2875.14862	0.0926249549
2873.71891	0.0924893171
2872.28920	0.0922017246
2870.85949	0.0917725414
2869.42978	0.0912484378
2868.00007	0.0906922370
2866.57036	0.0901596472
2865.14065	0.0896854103
2863.71093	0.0892806128
2862.28122	0.0889391825
2860.85151	0.0886455104
2859.42180	0.0883824080
2857.99209	0.0881343931
2856.56238	0.0878873765
2855.13267	0.0876228288
2853.70296	0.0873122960
2852.27325	0.0869182348
2850.84354	0.0864061415
2849.41383	0.0857621133
2847.98411	0.0850077942
2846.55440	0.0841987208
2845.12469	0.0834064186
2843.69498	0.0826920643
2842.26527	0.0820849091
2840.83556	0.0815778896
2839.40585	0.0811405033
2837.97614	0.0807387233
2836.54643	0.0803503990
2835.11672	0.0799683332
2833.68701	0.0795978606
2832.25729	0.0792490691
2830.82758	0.0789325759
2829.39787	0.0786535963
2827.96816	0.0784076974
2826.53845	0.0781801865
2825.10874	0.0779520869
2823.67903	0.0777106434
2822.24932	0.0774560198
2820.81961	0.0771996975
2819.38990	0.0769556388
2817.96019	0.0767325982
2816.53047	0.0765315890
2815.10076	0.0763475597
2813.67105	0.0761728883
2812.24134	0.0759985372
2810.81163	0.0758159608
2809.38192	0.0756203383
2807.95221	0.0754149780
2806.52250	0.0752095655
2805.09279	0.0750149190
2803.66308	0.0748351887
2802.23337	0.0746647567
2800.80366	0.0744915307
2799.37394	0.0743056536
2797.94423	0.0741068721
2796.51452	0.0739057884
2795.08481	0.0737163350
2793.65510	0.0735462457
2792.22539	0.0733891279
2790.79568	0.0732271001
2789.36597	0.0730418861
2787.93626	0.0728270337
2786.50655	0.0725928545
2785.07684	0.0723613650
2783.64712	0.0721550658
2782.21741	0.0719877556
2780.78770	0.0718592107
2779.35799	0.0717559233
2777.92828	0.0716550425
2776.49857	0.0715316013
2775.06886	0.0713684037
2773.63915	0.0711639822
2772.20944	0.0709347203
2770.77973	0.0707061514
2769.35002	0.0705005527
2767.92030	0.0703267232
2766.49059	0.0701768473
2765.06088	0.0700349659
2763.63117	0.0698872954
2762.20146	0.0697303116
2760.77175	0.0695696697
2759.34204	0.0694134682
2757.91233	0.0692643076
2756.48262	0.0691187158
2755.05291	0.0689717159
2753.62320	0.0688232183
2752.19348	0.0686768070
2750.76377	0.0685331747
2749.33406	0.0683847666
2747.90435	0.0682187229
2746.47464	0.0680261850
2745.04493	0.0678113401
2743.61522	0.0675905272
2742.18551	0.0673830658
2740.75580	0.0671984851
2739.32609	0.0670321360
2737.89638	0.0668690577
2736.46666	0.0666960478
2735.03695	0.0665112734
2733.60724	0.0663273036
2732.17753	0.0661631003
2730.74782	0.0660296977
2729.31811	0.0659208521
2727.88840	0.0658149943
2726.45869	0.0656880811
2725.02898	0.0655278787
2723.59927	0.0653371960
2722.16956	0.0651280731
2720.73984	0.0649128258
2719.31013	0.0647009015
2717.88042	0.0645009354
2716.45071	0.0643225610
2715.02100	0.0641719848
2713.59129	0.0640459433
2712.16158	0.0639298931
2710.73187	0.0638059825
2709.30216	0.0636624172
2707.87245	0.0635001510
2706.44274	0.0633298233
2705.01302	0.0631639585
2703.58331	0.0630098060
2702.15360	0.0628669262
2700.72389	0.0627291128
2699.29418	0.0625888333
2697.86447	0.0624417588
2696.43476	0.0622898899
2695.00505	0.0621405840
2693.57534	0.0620015115
2692.14563	0.0618761852
2690.71592	0.0617620237
2689.28620	0.0616533831
2687.85649	0.0615479313
2686.42678	0.0614479631
2684.99707	0.0613583624
2683.56736	0.0612792708
2682.13765	0.0612037145
2680.70794	0.0611188114
2679.27823	0.0610122979
2677.84852	0.0608784407
2676.41881	0.0607206598
2674.98910	0.0605486780
2673.55938	0.0603745952
2672.12967	0.0602070652
2670.69996	0.0600506254
2669.27025	0.0599056855
2667.84054	0.0597708598
2666.41083	0.0596451052
2664.98112	0.0595277883
2663.55141	0.0594188161
2662.12170	0.0593183264
2660.69199	0.0592244752
2659.26228	0.0591329895
2657.83256	0.0590371639
2656.40285	0.0589299425
2654.97314	0.0588085204
2653.54343	0.0586766452
2652.11372	0.0585445426
2650.68401	0.0584241748
2649.25430	0.0583229102
2647.82459	0.0582395159
2646.39488	0.0581653714
2644.96517	0.0580892898
2643.53546	0.0580035746
2642.10575	0.0579062514
2640.67603	0.0578014106
2639.24632	0.0576949976
2637.81661	0.0575929843
2636.38690	0.0574987382
2634.95719	0.0574137010
2633.52748	0.0573376864
2632.09777	0.0572684221
2630.66806	0.0572025664
2629.23835	0.0571361855
2627.80864	0.0570666604
2626.37893	0.0569929518
2624.94921	0.0569157153
2623.51950	0.0568348914
2622.08979	0.0567494854
2620.66008	0.0566592850
2619.23037	0.0565668009
2617.80066	0.0564786457
2616.37095	0.0564040057
2614.94124	0.0563490056
2613.51153	0.0563124642
2612.08182	0.0562856756
2610.65211	0.0562567674
2609.22239	0.0562177859
2607.79268	0.0561686456
2606.36297	0.0561160333
2604.93326	0.0560684614
2603.50355	0.0560296439
2602.07384	0.0559962206
2600.64413	0.0559594706
2599.21442	0.0559107102
2597.78471	0.0558469407
2596.35500	0.0557734706
2594.92529	0.0557002760
2593.49557	0.0556350686
2592.06586	0.0555783734
2590.63615	0.0555258617
2589.20644	0.0554743856
2587.77673	0.0554287098
2586.34702	0.0553990640
2584.91731	0.0553928018
2583.48760	0.0554067977
2582.05789	0.0554276221
2580.62818	0.0554392375
2579.19847	0.0554326214
2577.76875	0.0554090925
2576.33904	0.0553769208
2574.90933	0.0553459860
2573.47962	0.0553225242
2572.04991	0.0553082936
2570.62020	0.0553007945
2569.19049	0.0552955903
2567.76078	0.0552886240
2566.33107	0.0552783348
2564.90136	0.0552660152
2563.47165	0.0552546084
2562.04193	0.0552474335
2560.61222	0.0552484356
2559.18251	0.0552624576
2557.75280	0.0552937090
2556.32309	0.0553436056
2554.89338	0.0554066226
2553.46367	0.0554701798
2552.03396	0.0555193014
2550.60425	0.0555433333
2549.17454	0.0555425696
2547.74483	0.0555282421
2546.31511	0.0555161834
2544.88540	0.0555179492
2543.45569	0.0555358902
2542.02598	0.0555642806
2540.59627	0.0555954948
2539.16656	0.0556258298
2537.73685	0.0556546934
2536.30714	0.0556823835
2534.87743	0.0557083115
2533.44772	0.0557320006
2532.01801	0.0557561629
2530.58829	0.0557863042
2529.15858	0.0558289848
2527.72887	0.0558869503
2526.29916	0.0559584387
2524.86945	0.0560356826
2523.43974	0.0561067238
2522.01003	0.0561593957
2520.58032	0.0561863519
2519.15061	0.0561914183
2517.72090	0.0561881475
2516.29119	0.0561941005
2514.86147	0.0562199652
2513.43176	0.0562657565
2512.00205	0.0563224815
2510.57234	0.0563799553
2509.14263	0.0564333647
2507.71292	0.0564834811
2506.28321	0.0565337501
2504.85350	0.0565857626
2503.42379	0.0566384606
2501.99408	0.0566882752
2500.56437	0.0567321964
2499.13465	0.0567703396
2497.70494	0.0568073355
2496.27523	0.0568504147
2494.84552	0.0569064803
2493.41581	0.0569771901
2491.98610	0.0570574775
2490.55639	0.0571374856
2489.12668	0.0572075285
2487.69697	0.0572625175
2486.26726	0.0573036894
2484.83755	0.0573377758
2483.40784	0.0573729873
2481.97812	0.0574159138
2480.54841	0.0574675314
2479.11870	0.0575251840
2477.68899	0.0575837307
2476.25928	0.0576391518
2474.82957	0.0576903559
2473.39986	0.0577370077
2471.97015	0.0577783436
2470.54044	0.0578125566
2469.11073	0.0578386113
2467.68102	0.0578593425
2466.25130	0.0578818209
2464.82159	0.0579158328
2463.39188	0.0579696707
2461.96217	0.0580452606
2460.53246	0.0581351556
2459.10275	0.0582235046
2457.67304	0.0582918264
2456.24333	0.0583281517
2454.81362	0.0583333336
2453.38391	0.0583208092
2451.95420	0.0583089069
2450.52448	0.0583110675
2449.09477	0.0583297797
2447.66506	0.0583589450
2446.23535	0.0583900623
2444.80564	0.0584189631
2443.37593	0.0584454983
2441.94622	0.0584715009
2440.51651	0.0584962033
2439.08680	0.0585172921
2437.65709	0.0585334338
2436.22738	0.0585467331
2434.79766	0.0585619882
2433.36795	0.0585823692
2431.93824	0.0586066619
2430.50853	0.0586299188
2429.07882	0.0586479641
2427.64911	0.0586618595
2426.21940	0.0586766750
2424.78969	0.0586980097
2423.35998	0.0587263107
2421.93027	0.0587561503
2420.50056	0.0587803051
2419.07084	0.0587950051
2417.64113	0.0588023849
2416.21142	0.0588079579
2414.78171	0.0588154569
2413.35200	0.0588246770
2411.92229	0.0588322915
2410.49258	0.0588362068
2409.06287	0.0588369779
2407.63316	0.0588369183
2406.20345	0.0588365011
2404.77374	0.0588334799
2403.34402	0.0588234887
2401.91431	0.0588046089
2400.48460	0.0587775782
2399.05489	0.0587458983
2397.62518	0.0587130934
2396.19547	0.0586816519
2394.76576	0.0586524382
2393.33605	0.0586255640
2391.90634	0.0586003810
2390.47663	0.0585760921
2389.04692	0.0585511774
2387.61720	0.0585235097
2386.18749	0.0584893897
2384.75778	0.0584442541
2383.32807	0.0583840236
2381.89836	0.0583069809
2380.46865	0.0582145639
2379.03894	0.0581091158
2377.60923	0.0579915904
2376.17952	0.0578594021
2374.74981	0.0577072650
2373.32010	0.0575287007
2371.89038	0.0573180728
2370.46067	0.0570735075
2369.03096	0.0568016432
2367.60125	0.0565230772
2366.17154	0.0562700890
2364.74183	0.0560749434
2363.31212	0.0559516959
2361.88241	0.0558868349
2360.45270	0.0558475591
2359.02299	0.0558064356
2357.59328	0.0557692908
2356.16356	0.0557790324
2354.73385	0.0558809154
2353.30414	0.0560789481
2351.87443	0.0563276410
2350.44472	0.0565615818
2349.01501	0.0567226410
2347.58530	0.0567738526
2346.15559	0.0567046180
2344.72588	0.0565394983
2343.29617	0.0563379563
2341.86646	0.0561677888
2340.43674	0.0560632795
2339.00703	0.0560113564
2337.57732	0.0559815243
2336.14761	0.0559594408
2334.71790	0.0559548177
2333.28819	0.0559880622
2331.85848	0.0560688451
2330.42877	0.0561849959
2328.99906	0.0563042685
2327.56935	0.0563937463
2326.13964	0.0564389378
2324.70993	0.0564513467
2323.28021	0.0564601608
2321.85050	0.0564945638
2320.42079	0.0565674789
2318.99108	0.0566713773
2317.56137	0.0567846783
2316.13166	0.0568857044
2314.70195	0.0569602475
2313.27224	0.0570054390
2311.84253	0.0570266321
2310.41282	0.0570332706
2308.98311	0.0570348948
2307.55339	0.0570385866
2306.12368	0.0570484437
2304.69397	0.0570642687
2303.26426	0.0570813306
2301.83455	0.0570925511
2300.40484	0.0570918135
2298.97513	0.0570769608
2297.54542	0.0570517816
2296.11571	0.0570230298
2294.68600	0.0569977351
2293.25629	0.0569798164
2291.82657	0.0569699593
2290.39686	0.0569650903
2288.96715	0.0569609888
2287.53744	0.0569522232
2286.10773	0.0569336563
2284.67802	0.0569020212
2283.24831	0.0568574369
2281.81860	0.0568040311
2280.38889	0.0567483641
2278.95918	0.0566962399
2277.52947	0.0566514693
2276.09975	0.0566152819
2274.67004	0.0565867051
2273.24033	0.0565634705
2271.81062	0.0565412678
2270.38091	0.0565142296
2268.95120	0.0564786159
2267.52149	0.0564350151
2266.09178	0.0563881472
2264.66207	0.0563444681
2263.23236	0.0563085154
2261.80265	0.0562821403
2260.37293	0.0562647544
2258.94322	0.0562532917
2257.51351	0.0562433042
2256.08380	0.0562304854
2254.65409	0.0562138669
2253.22438	0.0561963394
2251.79467	0.0561823435
2250.36496	0.0561723858
2248.93525	0.0561608076
2247.50554	0.0561394207
2246.07583	0.0561028644
2244.64611	0.0560528822
2243.21640	0.0559967794
2241.78669	0.0559440702
2240.35698	0.0559039973
2238.92727	0.0558821820
2237.49756	0.0558778830
2236.06785	0.0558824167
2234.63814	0.0558824763
2233.20843	0.0558680221
2231.77872	0.0558380522
2230.34901	0.0558006987
2228.91929	0.0557643175
2227.48958	0.0557310879
2226.05987	0.0556964502
2224.63016	0.0556569025
2223.20045	0.0556149147
2221.77074	0.0555782542
2220.34103	0.0555528365
2218.91132	0.0555368327
2217.48161	0.0555219203
2216.05190	0.0554995053
2214.62219	0.0554673262
2213.19247	0.0554303266
2211.76276	0.0553952716
2210.33305	0.0553652197
2208.90334	0.0553359017
2207.47363	0.0552989729
2206.04392	0.0552474074
2204.61421	0.0551814139
2203.18450	0.0551097877
2201.75479	0.0550463125
2200.32508	0.0550027974
2198.89537	0.0549829379
2197.46565	0.0549812615
2196.03594	0.0549861416
2194.60623	0.0549851693
2193.17652	0.0549695976
2191.74681	0.0549353734
2190.31710	0.0548829697
2188.88739	0.0548172370
2187.45768	0.0547470823
2186.02797	0.0546829551
2184.59826	0.0546328723
2183.16855	0.0545984097
2181.73883	0.0545756631
2180.30912	0.0545580201
2178.87941	0.0545402355
2177.44970	0.0545187220
2176.01999	0.0544896983
2174.59028	0.0544493496
2173.16057	0.0543957986
2171.73086	0.0543324277
2170.30115	0.0542686582
2168.87144	0.0542154238
2167.44173	0.0541789718
2166.01202	0.0541562177
2164.58230	0.0541363955
2163.15259	0.0541071296
2161.72288	0.0540625677
2160.29317	0.0540054888
2158.86346	0.0539444014
2157.43375	0.0538871363
2156.00404	0.0538363233
2154.57433	0.0537908487
2153.14462	0.0537496842
2151.71491	0.0537145883
2150.28520	0.0536880493
2148.85548	0.0536694787
2147.42577	0.0536533110
2145.99606	0.0536310226
2144.56635	0.0535966381
2143.13664	0.0535503998
2141.70693	0.0534992442
2140.27722	0.0534530729
2138.84751	0.0534192584
2137.41780	0.0533989444
2135.98809	0.0533864163
2134.55838	0.0533721000
2133.12866	0.0533475131
2131.69895	0.0533083826
2130.26924	0.0532559417
2128.83953	0.0531966276
2127.40982	0.0531389341
2125.98011	0.0530905761
2124.55040	0.0530548319
2123.12069	0.0530293286
2121.69098	0.0530089736
2120.26127	0.0529895239
2118.83156	0.0529703982
2117.40184	0.0529534370
2115.97213	0.0529388748
2114.54242	0.0529230535
2113.11271	0.0529000424
2111.68300	0.0528657474
2110.25329	0.0528198779
2108.82358	0.0527657084
2107.39387	0.0527077504
2105.96416	0.0526499748
2104.53445	0.0525958873
2103.10474	0.0525486432
2101.67502	0.0525101088
2100.24531	0.0524791442
2098.81560	0.0524506643
2097.38589	0.0524175726
2095.95618	0.0523739979
2094.52647	0.0523194484
2093.09676	0.0522595346
2091.66705	0.0522038341
2090.23734	0.0521610081
2088.80763	0.0521351472
2087.37792	0.0521249920
2085.94820	0.0521257780
2084.51849	0.0521311201
2083.08878	0.0521337166
2081.65907	0.0521256030
2080.22936	0.0520999208
2078.79965	0.0520545095
2077.36994	0.0519943684
2075.94023	0.0519308224
2074.51052	0.0518756323
2073.08081	0.0518356673
2071.65110	0.0518096536
2070.22138	0.0517906658
2068.79167	0.0517715327
2067.36196	0.0517485552
2065.93225	0.0517231859
2064.50254	0.0516983420
2063.07283	0.0516761504
2061.64312	0.0516549572
2060.21341	0.0516313389
2058.78370	0.0516020432
2057.35399	0.0515663885
2055.92428	0.0515270121
2054.49456	0.0514883660
2053.06485	0.0514545590
2051.63514	0.0514283888
2050.20543	0.0514096804
2048.77572	0.0513941497
2047.34601	0.0513729379
2045.91630	0.0513348021
2044.48659	0.0512731001
2043.05688	0.0511925630
2041.62717	0.0511101186
2040.19746	0.0510460064
2038.76774	0.0510113910
2037.33803	0.0510025397
2035.90832	0.0510057136
2034.47861	0.0510079265
2033.04890	0.0510032363
2031.61919	0.0509897284
2030.18948	0.0509650446
2028.75977	0.0509266220
2027.33006	0.0508769117
2025.90035	0.0508258976
2024.47064	0.0507858843
2023.04092	0.0507626086
2021.61121	0.0507510304
2020.18150	0.0507407859
2018.75179	0.0507253669
2017.32208	0.0507077090
2015.89237	0.0506954901
2014.46266	0.0506932810
2013.03295	0.0506970920
2011.60324	0.0506979339
2010.17353	0.0506890342
2008.74382	0.0506709665
2007.31411	0.0506510995
2005.88439	0.0506368764
2004.45468	0.0506306514
2003.02497	0.0506280027
2001.59526	0.0506227091
2000.16555	0.0506116301
1998.73584	0.0505965911
1997.30613	0.0505810902
1995.87642	0.0505672470
1994.44671	0.0505547114
1993.01700	0.0505423807
1991.58729	0.0505309813
1990.15757	0.0505236536
1988.72786	0.0505231880
1987.29815	0.0505304597
1985.86844	0.0505436026
1984.43873	0.0505601801
1983.00902	0.0505787916
1981.57931	0.0505997911
1980.14960	0.0506224185
1978.71989	0.0506437421
1977.29018	0.0506591871
1975.86047	0.0506657884
1974.43075	0.0506638102
1973.00104	0.0506561920
1971.57133	0.0506464168
1970.14162	0.0506383032
1968.71191	0.0506368764
1967.28220	0.0506473184
1965.85249	0.0506707355
1964.42278	0.0507019795
1962.99307	0.0507313609
1961.56336	0.0507525131
1960.13365	0.0507672653
1958.70393	0.0507829189
1957.27422	0.0508061685
1955.84451	0.0508386418
1954.41480	0.0508763865
1952.98509	0.0509135835
1951.55538	0.0509446412
1950.12567	0.0509655103
1948.69596	0.0509754382
1947.26625	0.0509778522
1945.83654	0.0509800352
1944.40683	0.0509897284
1942.97711	0.0510118566
1941.54740	0.0510469377
1940.11769	0.0510915704
1938.68798	0.0511397645
1937.25827	0.0511854850
1935.82856	0.0512257963
1934.39885	0.0512632243
1932.96914	0.0513035432
1931.53943	0.0513497181
1930.10972	0.0513973273
1928.68001	0.0514361411
1927.25029	0.0514591038
1925.82058	0.0514676422
1924.39087	0.0514710248
1922.96116	0.0514795631
1921.53145	0.0514987409
1920.10174	0.0515297800
1918.67203	0.0515717529
1917.24232	0.0516244024
1915.81261	0.0516865887
1914.38290	0.0517547950
1912.95319	0.0518236831
1911.52347	0.0518887863
1910.09376	0.0519503132
1908.66405	0.0520130135
1907.23434	0.0520834588
1905.80463	0.0521624088
1904.37492	0.0522421338
1902.94521	0.0523121208
1901.51550	0.0523680709
1900.08579	0.0524158217
1898.65608	0.0524655618
1897.22637	0.0525225252
1895.79665	0.0525830612
1894.36694	0.0526406243
1892.93723	0.0526921712
1891.50752	0.0527395792
1890.07781	0.0527871661
1888.64810	0.0528390557
1887.21839	0.0529011823
1885.78868	0.0529796109
1884.35897	0.0530760400
1882.92926	0.0531833731
1881.49955	0.0532889813
1880.06983	0.0533817038
1878.64012	0.0534577556
1877.21041	0.0535187721
1875.78070	0.0535675585
1874.35099	0.0536043681
1872.92128	0.0536288545
1871.49157	0.0536447279
1870.06186	0.0536625944
1868.63215	0.0536989458
1867.20244	0.0537672043
1865.77273	0.0538672395
1864.34301	0.0539840907
1862.91330	0.0540986881
1861.48359	0.0541993231
1860.05388	0.0542862006
1858.62417	0.0543667525
1857.19446	0.0544467941
1855.76475	0.0545264110
1854.33504	0.0546036623
1852.90533	0.0546787009
1851.47562	0.0547516644
1850.04591	0.0548182353
1848.61619	0.0548702516
1847.18648	0.0549054109
1845.75677	0.0549359620
1844.32706	0.0549851693
1842.89735	0.0550704375
1841.46764	0.0551906712
1840.03793	0.0553316101
1838.60822	0.0554760024
1837.17851	0.0556091778
1835.74880	0.0557200536
1834.31909	0.0558055528
1832.88938	0.0558729954
1831.45966	0.0559377410
1830.02995	0.0560155958
1828.60024	0.0561161786
1827.17053	0.0562435687
1825.74082	0.0563970804
1824.31111	0.0565681867
1822.88140	0.0567395724
1821.45169	0.0568921678
1820.02198	0.0570181012
1818.59227	0.0571247004
1817.16256	0.0572268106
1815.73284	0.0573336408
1814.30313	0.0574462898
1812.87342	0.0575637221
1811.44371	0.0576884635
1810.01400	0.0578239709
1808.58429	0.0579673350
1807.15458	0.0581097975
1805.72487	0.0582428016
1804.29516	0.0583642423
1802.86545	0.0584784299
1801.43574	0.0585945472
1800.00602	0.0587222204
1798.57631	0.0588651076
1797.14660	0.0590158701
1795.71689	0.0591612868
1794.28718	0.0592953302
1792.85747	0.0594304800
1791.42776	0.0595905557
1789.99805	0.0597867817
1788.56834	0.0600051507
1787.13863	0.0602208935
1785.70892	0.0604187734
1784.27920	0.0605991222
1782.84949	0.0607702583
1781.41978	0.0609401502
1779.99007	0.0611130595
1778.56036	0.0612894669
1777.13065	0.0614676736
1775.70094	0.0616456568
1774.27123	0.0618282482
1772.84152	0.0620326251
1771.41181	0.0622786582
1769.98210	0.0625646785
1768.55238	0.0628647655
1767.12267	0.0631540194
1765.69296	0.0634300411
1764.26325	0.0637093335
1762.83354	0.0640100017
1761.40383	0.0643419251
1759.97412	0.0647069067
1758.54441	0.0651041046
1757.11470	0.0655288100
1755.68499	0.0659698769
1754.25528	0.0664180592
1752.82556	0.0668799281
1751.39585	0.0673806444
1749.96614	0.0679421797
1748.53643	0.0685552955
1747.10672	0.0691851303
1745.67701	0.0698061511
1744.24730	0.0704159439
1742.81759	0.0710173845
1741.38788	0.0715993568
1739.95817	0.0721441284
1738.52846	0.0726504326
1737.09874	0.0731460005
1735.66903	0.0736794919
1734.23932	0.0742961913
1732.80961	0.0750140920
1731.37990	0.0758164525
1729.95019	0.0766732320
1728.52048	0.0775629058
1727.09077	0.0784759521
1725.66106	0.0794063061
1724.23135	0.0803461969
1722.80164	0.0812928975
1721.37192	0.0822693557
1719.94221	0.0833464861
1718.51250	0.0846292228
1717.08279	0.0861626342
1715.65308	0.0878270417
1714.22337	0.0894164219
1712.79366	0.0908290669
1711.36395	0.0921072140
1709.93424	0.0933502689
1708.50453	0.0946422741
1707.07482	0.0960343555
1705.64510	0.0975660011
1704.21539	0.0993045121
1702.78568	0.1013696492
1701.35597	0.1039093062
1699.92626	0.1069938242
1698.49655	0.1104712412
1697.06684	0.1139691547
1695.63713	0.1171406582
1694.20742	0.1198675111
1692.77771	0.1222193018
1691.34800	0.1243309081
1689.91828	0.1263487041
1688.48857	0.1284497678
1687.05886	0.1308621019
1685.62915	0.1337816119
1684.19944	0.1371349543
1682.76973	0.1404848993
1681.34002	0.1434130967
1679.91031	0.1458835453
1678.48060	0.1481329352
1677.05089	0.1504149288
1675.62118	0.1528706849
1674.19147	0.1555235684
1672.76175	0.1583446115
1671.33204	0.1613014489
1669.90233	0.1643304378
1668.47262	0.1673126519
1667.04291	0.1701508462
1665.61320	0.1728568673
1664.18349	0.1755113304
1662.75378	0.1781179905
1661.32407	0.1805194318
1659.89436	0.1824866384
1658.46465	0.1838675737
1657.03493	0.1846091598
1655.60522	0.1846680939
1654.17551	0.1839806437
1652.74580	0.1826023906
1651.31609	0.1808130294
1649.88638	0.1788951457
1648.45667	0.1769172251
1647.02696	0.1748488694
1645.59725	0.1727514714
1644.16754	0.1707735360
1642.73783	0.1689952165
1641.30811	0.1673411280
1639.87840	0.1656201035
1638.44869	0.1636165828
1637.01898	0.1612185538
1635.58927	0.1585511714
1634.15956	0.1559049189
1632.72985	0.1534417570
1631.30014	0.1510697603
1629.87043	0.1485687047
1628.44072	0.1457229406
1627.01101	0.1423968524
1625.58129	0.1386051476
1624.15158	0.1345395744
1622.72187	0.1304574460
1621.29216	0.1265013963
1619.86245	0.1226337329
1618.43274	0.1187485456
1617.00303	0.1148590297
1615.57332	0.1111714616
1614.14361	0.1079279482
1612.71390	0.1051929891
1611.28419	0.1028431952
1609.85447	0.1007184684
1608.42476	0.0987473279
1606.99505	0.0969615206
1605.56534	0.0954200774
1604.13563	0.0941342115
1602.70592	0.0930633545
1601.27621	0.0921607241
1599.84650	0.0914004892
1598.41679	0.0907686651
1596.98708	0.0902492777
1595.55737	0.0898304209
1594.12765	0.0895153135
1592.69794	0.0893174931
1591.26823	0.0892428756
1589.83852	0.0892863944
1588.40881	0.0894438103
1586.97910	0.0897188261
1585.54939	0.0901074708
1584.11968	0.0905832201
1582.68997	0.0911064595
1581.26026	0.0916564837
1579.83055	0.0922535509
1578.40083	0.0929482952
1576.97112	0.0937758759
1575.54141	0.0947137102
1574.11170	0.0956993923
1572.68199	0.0967005119
1571.25228	0.0977440774
1569.82257	0.0988728032
1568.39286	0.1000786200
1566.96315	0.1012874022
1565.53344	0.1024229974
1564.10373	0.1034848616
1562.67401	0.1045820266
1561.24430	0.1059290394
1559.81459	0.1077537090
1558.38488	0.1100205928
1556.95517	0.1122821420
1555.52546	0.1141123772
1554.09575	0.1154619083
1552.66604	0.1164657846
1551.23633	0.1172138229
1549.80662	0.1177100167
1548.37691	0.1179210395
1546.94719	0.1178221852
1545.51748	0.1173956320
1544.08777	0.1165917516
1542.65806	0.1153367385
1541.22835	0.1136707515
1539.79864	0.1118720099
1538.36893	0.1102409884
1536.93922	0.1088220477
1535.50951	0.1074789986
1534.07980	0.1060923412
1532.65009	0.1046414450
1531.22037	0.1031751186
1529.79066	0.1017356515
1528.36095	0.1003116071
1526.93124	0.0988540202
1525.50153	0.0973236635
1524.07182	0.0957246870
1522.64211	0.0941109359
1521.21240	0.0925610438
1519.78269	0.0911356136
1518.35298	0.0898399428
1516.92327	0.0886222720
1515.49356	0.0874091834
1514.06384	0.0861355513
1512.63413	0.0847359300
1511.20442	0.0831048116
1509.77471	0.0810894892
1508.34500	0.0786258578
1506.91529	0.0760054439
1505.48558	0.0738006011
1504.05587	0.0722921416
1502.62616	0.0712925941
1501.19645	0.0704850480
1499.76674	0.0696624741
1498.33702	0.0687746331
1496.90731	0.0678929314
1495.47760	0.0671131313
1494.04789	0.0664578453
1492.61818	0.0658770204
1491.18847	0.0653171614
1489.75876	0.0647793785
1488.32905	0.0643245727
1486.89934	0.0640186146
1485.46963	0.0638761818
1484.03992	0.0638642162
1482.61020	0.0639408678
1481.18049	0.0640813410
1479.75078	0.0642808378
1478.32107	0.0645509735
1476.89136	0.0649196804
1475.46165	0.0654263571
1474.03194	0.0660891607
1472.60223	0.0668495223
1471.17252	0.0675760731
1469.74281	0.0681557804
1468.31310	0.0685577244
1466.88338	0.0688190982
1465.45367	0.0690056980
1464.02396	0.0691782087
1462.59425	0.0693709478
1461.16454	0.0695912465
1459.73483	0.0698301941
1458.30512	0.0700639561
1456.87541	0.0702448562
1455.44570	0.0703199953
1454.01599	0.0702692941
1452.58628	0.0701080933
1451.15656	0.0698583201
1449.72685	0.0695383176
1448.29714	0.0691715330
1446.86743	0.0687920153
1445.43772	0.0684320927
1444.00801	0.0681013018
1442.57830	0.0677795708
1441.14859	0.0674288049
1439.71888	0.0670134425
1438.28917	0.0665251240
1436.85946	0.0660028160
1435.42974	0.0655246899
1434.00003	0.0651617572
1432.57032	0.0649441183
1431.14061	0.0648692697
1429.71090	0.0649269521
1428.28119	0.0651042536
1426.85148	0.0653791428
1425.42177	0.0657175332
1423.99206	0.0660848767
1422.56235	0.0664610118
1421.13264	0.0668490380
1419.70292	0.0672684759
1418.27321	0.0677326769
1416.84350	0.0682295933
1415.41379	0.0687316582
1413.98408	0.0692202225
1412.55437	0.0696937740
1411.12466	0.0701583549
1409.69495	0.0706142560
1408.26524	0.0710497275
1406.83553	0.0714424849
1405.40582	0.0717660040
1403.97610	0.0719963759
1402.54639	0.0721191540
1401.11668	0.0721347705
1399.68697	0.0720571801
1398.25726	0.0719060376
1396.82755	0.0716987327
1395.39784	0.0714457184
1393.96813	0.0711503178
1392.53842	0.0708080009
1391.10871	0.0704067796
1389.67900	0.0699322075
1388.24928	0.0693810061
1386.81957	0.0687741786
1385.38986	0.0681528151
1383.96015	0.0675548092
1382.53044	0.0669956803
1381.10073	0.0664712414
1379.67102	0.0659737960
1378.24131	0.0655047297
1376.81160	0.0650765300
1375.38189	0.0647093132
1373.95218	0.0644226819
1372.52246	0.0642230064
1371.09275	0.0640926808
1369.66304	0.0639913753
1368.23333	0.0638724938
1366.80362	0.0637065396
1365.37391	0.0634992793
1363.94420	0.0632934645
1362.51449	0.0631478801
1361.08478	0.0631017536
1359.65507	0.0631524622
1358.22536	0.0632651895
1356.79565	0.0633995160
1355.36593	0.0635271743
1353.93622	0.0636355951
1352.50651	0.0637235418
1351.07680	0.0637951568
1349.64709	0.0638549179
1348.21738	0.0639056861
1346.78767	0.0639486611
1345.35796	0.0639852881
1343.92825	0.0640184656
1342.49854	0.0640541315
1341.06883	0.0641036332
1339.63911	0.0641822815
1338.20940	0.0643028095
1336.77969	0.0644661635
1335.34998	0.0646606386
1333.92027	0.0648690909
1332.49056	0.0650788397
1331.06085	0.0652843639
1329.63114	0.0654865205
1328.20143	0.0656905472
1326.77172	0.0659047067
1325.34201	0.0661380216
1323.91229	0.0663957670
1322.48258	0.0666745231
1321.05287	0.0669621304
1319.62316	0.0672429129
1318.19345	0.0675057620
1316.76374	0.0677473769
1315.33403	0.0679707229
1313.90432	0.0681818277
1312.47461	0.0683877915
1311.04490	0.0685948879
1309.61519	0.0688049346
1308.18547	0.0690138936
1306.75576	0.0692128763
1305.32605	0.0693942755
1303.89634	0.0695561841
1302.46663	0.0697019845
1301.03692	0.0698361546
1299.60721	0.0699609444
1298.17750	0.0700769126
1296.74779	0.0701835454
1295.31808	0.0702801570
1293.88837	0.0703650415
1292.45865	0.0704367980
1291.02894	0.0704967454
1289.59923	0.0705514923
1288.16952	0.0706099942
1286.73981	0.0706788898
1285.31010	0.0707583725
1283.88039	0.0708431974
1282.45068	0.0709282234
1281.02097	0.0710142106
1279.59126	0.0711085722
1278.16155	0.0712213442
1276.73183	0.0713587031
1275.30212	0.0715218335
1273.87241	0.0717109442
1272.44270	0.0719306916
1271.01299	0.0721918046
1269.58328	0.0725049898
1268.15357	0.0728744194
1266.72386	0.0732977018
1265.29415	0.0737721026
1263.86444	0.0743008032
1262.43473	0.0748919025
1261.00501	0.0755497292
1259.57530	0.0762647986
1258.14559	0.0770114586
1256.71588	0.0777539238
1255.28617	0.0784554183
1253.85646	0.0790834501
1252.42675	0.0796130002
1250.99704	0.0800255686
1249.56733	0.0803099126
1248.13762	0.0804611444
1246.70791	0.0804800838
1245.27819	0.0803732947
1243.84848	0.0801542476
1242.41877	0.0798427835
1240.98906	0.0794633701
1239.55935	0.0790393203
1238.12964	0.0785880163
1236.69993	0.0781183019
1235.27022	0.0776326656
1233.84051	0.0771311522
1232.41080	0.0766148642
1230.98109	0.0760864317
1229.55137	0.0755488351
1228.12166	0.0750069246
1226.69195	0.0744673163
1225.26224	0.0739371851
1223.83253	0.0734193176
1222.40282	0.0729084983
1220.97311	0.0723935068
1219.54340	0.0718640983
1218.11369	0.0713182166
1216.68398	0.0707633644
1215.25427	0.0702124834
1213.82455	0.0696795508
1212.39484	0.0691793934
1210.96513	0.0687284470
1209.53542	0.0683432817
1208.10571	0.0680348426
1206.67600	0.0678029582
1205.24629	0.0676376820
1203.81658	0.0675275028
1202.38687	0.0674680844
1200.95716	0.0674650893
1199.52745	0.0675287694
1198.09774	0.0676665679
1196.66802	0.0678806156
1195.23831	0.0681702867
1193.80860	0.0685361400
1192.37889	0.0689779669
1190.94918	0.0694871917
1189.51947	0.0700407773
1188.08976	0.0706053376
1186.66005	0.0711523592
1185.23034	0.0716751292
1183.80063	0.0721960887
1182.37092	0.0727579445
1180.94120	0.0734020621
1179.51149	0.0741481707
1178.08178	0.0749857277
1176.65207	0.0758810937
1175.22236	0.0767951831
1173.79265	0.0776991248
1172.36294	0.0785810351
1170.93323	0.0794423893
1169.50352	0.0802904442
1168.07381	0.0811325163
1166.64410	0.0819760337
1165.21438	0.0828299373
1163.78467	0.0837045386
1162.35496	0.0846074522
1160.92525	0.0855393857
1159.49554	0.0864924416
1158.06583	0.0874533206
1156.63612	0.0884091184
1155.20641	0.0893532634
1153.77670	0.0902872607
1152.34699	0.0912194997
1150.91728	0.0921609178
1149.48756	0.0931205079
1148.05785	0.0941036418
1146.62814	0.0951141343
1145.19843	0.0961583108
1143.76872	0.0972473696
1142.33901	0.0983972400
1140.90930	0.0996249467
1139.47959	0.1009437591
1138.04988	0.1023593992
1136.62017	0.1038664579
1135.19046	0.1054472402
1133.76074	0.1070761979
1132.33103	0.1087287366
1130.90132	0.1103892922
1129.47161	0.1120537072
1128.04190	0.1137239560
1126.61219	0.1154014990
1125.18248	0.1170822233
1123.75277	0.1187580377
1122.32306	0.1204177067
1120.89335	0.1220468804
1119.46364	0.1236276776
1118.03392	0.1251430809
1116.60421	0.1265857220
1115.17450	0.1279670149
1113.74479	0.1293149441
1112.31508	0.1306619495
1110.88537	0.1320239902
1109.45566	0.1333835572
1108.02595	0.1346895695
1106.59624	0.1358756572
1105.16653	0.1368904710
1103.73682	0.1377202421
1102.30710	0.1383904964
1100.87739	0.1389459819
1099.44768	0.1394282430
1098.01797	0.1398621202
1096.58826	0.1402583718
1095.15855	0.1406197399
1093.72884	0.1409410983
1092.29913	0.1412061006
1090.86942	0.1413848698
1089.43971	0.1414384544
1088.01000	0.1413296312
1086.58028	0.1410325617
1085.15057	0.1405401677
1083.72086	0.1398658007
1082.29115	0.1390385628
1080.86144	0.1380936950
1079.43173	0.1370604485
1078.00202	0.1359537095
1076.57231	0.1347729415
1075.14260	0.1335104704
1073.71289	0.1321606785
1072.28318	0.1307269931
1070.85346	0.1292202920
1069.42375	0.1276524514
1067.99404	0.1260288358
1066.56433	0.1243468672
1065.13462	0.1225987822
1063.70491	0.1207756475
1062.27520	0.1188689843
1060.84549	0.1168694422
1059.41578	0.1147690043
1057.98607	0.1125665829
1056.55636	0.1102758572
1055.12664	0.1079265177
1053.69693	0.1055561230
1052.26722	0.1031978726
1050.83751	0.1008729562
1049.40780	0.0985939428
1047.97809	0.0963732675
1046.54838	0.0942272022
1045.11867	0.0921711549
1043.68896	0.0902128592
1042.25925	0.0883508995
1040.82954	0.0865807459
1039.39983	0.0849011466
1037.97011	0.0833133683
1036.54040	0.0818161219
1035.11069	0.0804025456
1033.68098	0.0790631697
1032.25127	0.0777922198
1030.82156	0.0765900388
1029.39185	0.0754604638
1027.96214	0.0744064450
1026.53243	0.0734306276
1025.10272	0.0725383013
1023.67301	0.0717395842
1022.24329	0.0710482076
1020.81358	0.0704772845
1019.38387	0.0700356960
1017.95416	0.0697273612
1016.52445	0.0695524439
1015.09474	0.0695107058
1013.66503	0.0696033388
1012.23532	0.0698339045
1010.80561	0.0702079758
1009.37590	0.0707307681
1007.94619	0.0714047998
1006.51647	0.0722248554
1005.08676	0.0731744915
1003.65705	0.0742256492
1002.22734	0.0753433853
1000.79763	0.0764912069
999.36792	0.0776334703
997.93821	0.0787329674
996.50850	0.0797485262
995.07879	0.0806374177
993.64908	0.0813634470
992.21937	0.0819038525
990.78965	0.0822493359
989.35994	0.0823985487
987.93023	0.0823515803
986.50052	0.0821079910
985.07081	0.0816704482
983.64110	0.0810487121
982.21139	0.0802621990
980.78168	0.0793391466
979.35197	0.0783131346
977.92226	0.0772170126
976.49255	0.0760758221
975.06283	0.0749014691
973.63312	0.0736937523
972.20341	0.0724483132
970.77370	0.0711667538
969.34399	0.0698651895
967.91428	0.0685736984
966.48457	0.0673303455
965.05486	0.0661711767
963.62515	0.0651210621
962.19544	0.0641892105
960.76573	0.0633687899
959.33601	0.0626421496
957.90630	0.0619882569
956.47659	0.0613916963
955.04688	0.0608492866
953.61717	0.0603704602
952.18746	0.0599706136
950.75775	0.0596591532
949.32804	0.0594308674
947.89833	0.0592688024
946.46862	0.0591548793
945.03891	0.0590801351
943.60919	0.0590451695
942.17948	0.0590501800
940.74977	0.0590837225
939.32006	0.0591210946
937.89035	0.0591325462
936.46064	0.0590958856
935.03093	0.0590034761
933.60122	0.0588611066
932.17151	0.0586816519
930.74180	0.0584792010
929.31209	0.0582675189
927.88237	0.0580604672
926.45266	0.0578715876
925.02295	0.0577113442
923.59324	0.0575833172
922.16353	0.0574811846
920.73382	0.0573890880
919.30411	0.0572854653
917.87440	0.0571470521
916.44469	0.0569547005
915.01498	0.0566998981
913.58527	0.0563901812
912.15555	0.0560522042
910.72584	0.0557244979
909.29613	0.0554442666
907.86642	0.0552328825
906.43671	0.0550929196
905.00700	0.0550178699
903.57729	0.0550070889
902.14758	0.0550720245
900.71787	0.0552292094
899.28816	0.0554845929
897.85845	0.0558240414
896.42873	0.0562178157
894.99902	0.0566355139
893.56931	0.0570599288
892.13960	0.0574888065
890.70989	0.0579257421
889.28018	0.0583685972
887.85047	0.0588068329
886.42076	0.0592283048
884.99105	0.0596296638
883.56134	0.0600170679
882.13163	0.0604001805
880.70192	0.0607819296
879.27220	0.0611577593
877.84249	0.0615210868
876.41278	0.0618680976
874.98307	0.0621948875
873.55336	0.0624898821
872.12365	0.0627333894
870.69394	0.0629080608
869.26423	0.0630124658
867.83452	0.0630633458
866.40481	0.0630843639
864.97510	0.0630887896
863.54538	0.0630729273
862.11567	0.0630178824
860.68596	0.0628992617
859.25625	0.0626941547
857.82654	0.0623882003
856.39683	0.0619842857
854.96712	0.0615074895
853.53741	0.0609974936
852.10770	0.0604915172
850.67799	0.0600083284
849.24828	0.0595451556
847.81856	0.0590888560
846.38885	0.0586292371
844.95914	0.0581656098
843.52943	0.0577067025
842.09972	0.0572675094
840.67001	0.0568656102
839.24030	0.0565135218
837.81059	0.0562092140
836.38088	0.0559319966
834.95117	0.0556508675
833.52146	0.0553411357
832.09174	0.0549975671
830.66203	0.0546348691
829.23232	0.0542770475
827.80261	0.0539436415
826.37290	0.0536417998
824.94319	0.0533641987
823.51348	0.0530969240
822.08377	0.0528308079
820.65406	0.0525724813
819.22435	0.0523452908
817.79464	0.0521748178
816.36492	0.0520693660
814.93521	0.0520083457
813.50550	0.0519502535
812.07579	0.0518558845
810.64608	0.0517112575
809.21637	0.0515367761
807.78666	0.0513759702
806.35695	0.0512727201
804.92724	0.0512485132
803.49753	0.0512920357
802.06782	0.0513688028
800.63810	0.0514418222
799.20839	0.0514899679
797.77868	0.0515124090
796.34897	0.0515182093
794.91926	0.0515152961
793.48955	0.0515059382
792.05984	0.0514941067
790.63013	0.0514919795
789.20042	0.0515184402
787.77071	0.0515884571
786.34100	0.0517010801
784.91128	0.0518356971
783.48157	0.0519599691
782.05186	0.0520455502
780.62215	0.0520813577
779.19244	0.0520750247
777.76273	0.0520451441
776.33302	0.0520100966
774.90331	0.0519815013
773.47360	0.0519665927
772.04389	0.0519712605
770.61418	0.0520004965
769.18446	0.0520552397
767.75475	0.0521296039
766.32504	0.0522112176
764.89533	0.0522840023
763.46562	0.0523325615
762.03591	0.0523478314
760.60620	0.0523331426
759.17649	0.0523061343
757.74678	0.0522911549
756.31707	0.0523057543
754.88736	0.0523517169
753.45764	0.0524171330
752.02793	0.0524886660
750.59822	0.0525591299
749.16851	0.0526263937
747.73880	0.0526854508
746.30909	0.0527277105
744.87938	0.0527493693
743.44967	0.0527597181
742.01996	0.0527776070
740.59025	0.0528163090
739.16054	0.0528713316
737.73082	0.0529251285
736.30111	0.0529652499
734.87140	0.0529985912
733.44169	0.0530486032
732.01198	0.0531387888
730.58227	0.0532802604
729.15256	0.0534729511
727.72285	0.0537142381
726.29314	0.0540029965
724.86343	0.0543318428
723.43372	0.0546775833
722.00401	0.0550007410
720.57429	0.0552617237
719.14458	0.0554435626
717.71487	0.0555638112
716.28516	0.0556639917
714.85545	0.0557876267
713.42574	0.0559578203
711.99603	0.0561706200
710.56632	0.0564043596
709.13661	0.0566372834
707.70690	0.0568606220
706.27719	0.0570781119
704.84747	0.0572927594
703.41776	0.0574938320
701.98805	0.0576546155
700.55834	0.0577442832
699.12863	0.0577464700
697.69892	0.0576703995
696.26921	0.0575480610
694.83950	0.0574169494
693.40979	0.0573017709
691.98008	0.0572069362
690.55037	0.0571255870
689.12065	0.0570555888
687.69094	0.0570060872
686.26123	0.0569870770
684.83152	0.0569924489
683.40181	0.0569981188
681.97210	0.0569806136
680.54239	0.0569402091
679.11268	0.0569044724
677.68297	0.0569047369
676.25326	0.0569482669
674.82355	0.0570141450
673.39383	0.0570741296
671.96412	0.0571138375
670.53441	0.0571362451
669.10470	0.0571486168
667.67499	0.0571461655
666.24528	0.0571156964
664.81557	0.0570522845
663.38586	0.0569630824
661.95615	0.0568560176
660.52644	0.0567326397
659.09673	0.0565907471
657.66701	0.0564310066
656.23730	0.0562637523
654.80759	0.0561076663
653.37788	0.0559836179
651.94817	0.0559072644
650.51846	0.0558835641
649.08875	0.0559024960
647.65904	0.0559376813
646.22933	0.0559524335
644.79962	0.0559143610
643.36991	0.0558160320
641.94019	0.0556850322
640.51048	0.0555707812
639.08077	0.0555128306
637.65106	0.0555090345
636.22135	0.0555118583
634.79164	0.0554536209
633.36193	0.0552842729
631.93222	0.0549923107
630.50251	0.0545977652
629.07280	0.0541298240
627.64309	0.0536064506
626.21337	0.0530313738
624.78366	0.0524088107
623.35395	0.0517655574
621.92424	0.0511599444
620.49453	0.0506561026
619.06482	0.0502789021
617.63511	0.0499928705
616.20540	0.0497345403
614.77569	0.0494691133
613.34598	0.0492153578
611.91627	0.0490179397
610.48655	0.0488965921
609.05684	0.0488304272
607.62713	0.0487898774
606.19742	0.0487755127
604.76771	0.0488150753
603.33800	0.0489237383
601.90829	0.0490800180
600.47858	0.0492444672
599.04887	0.0493983366
