3997.47168	0.0045239897
3996.04197	0.0045477673
3994.61226	0.0045390828
3993.18255	0.0045090285
3991.75284	0.0044788192
3990.32312	0.0044694296
3988.89341	0.0044898563
3987.46370	0.0045301369
3986.03399	0.0045675957
3984.60428	0.0045836060
3983.17457	0.0045778765
3981.74486	0.0045669940
3980.31515	0.0045673605
3978.88544	0.0045781904
3977.45573	0.0045791063
3976.02602	0.0045450730
3974.59630	0.0044672326
3973.16659	0.0043596504
3971.73688	0.0042516496
3970.30717	0.0041713272
3968.87746	0.0041321251
3967.44775	0.0041308706
3966.01804	0.0041507063
3964.58833	0.0041721635
3963.15862	0.0041819382
3961.72891	0.0041793510
3960.29920	0.0041757440
3958.86948	0.0041846829
3957.43977	0.0042121531
3956.01006	0.0042518852
3954.58035	0.0042897644
3953.15064	0.0043134768
3951.72093	0.0043175556
3950.29122	0.0043049799
3948.86151	0.0042820787
3947.43180	0.0042565381
3946.00209	0.0042361747
3944.57238	0.0042297184
3943.14266	0.0042448794
3941.71295	0.0042828629
3940.28324	0.0043320134
3938.85353	0.0043727499
3937.42382	0.0043872362
3935.99411	0.0043713902
3934.56440	0.0043366412
3933.13469	0.0043003787
3931.70498	0.0042724581
3930.27527	0.0042489571
3928.84556	0.0042205434
3927.41585	0.0041845781
3925.98613	0.0041476488
3924.55642	0.0041164714
3923.12671	0.0040915157
3921.69700	0.0040687039
3920.26729	0.0040508839
3918.83758	0.0040541501
3917.40787	0.0040994072
3915.97816	0.0041910079
3914.54845	0.0043054507
3913.11874	0.0043992125
3911.68903	0.0044300701
3910.25931	0.0043734824
3908.82960	0.0042319139
3907.39989	0.0040355469
3905.97018	0.0038399210
3904.54047	0.0037142436
3903.11076	0.0037116588
3901.68105	0.0038303104
3900.25134	0.0040044300
3898.82163	0.0041503403
3897.39192	0.0042206221
3895.96221	0.0042181909
3894.53249	0.0041809189
3893.10278	0.0041573970
3891.67307	0.0041815462
3890.24336	0.0042507090
3888.81365	0.0043258173
3887.38394	0.0043577417
3885.95423	0.0043190978
3884.52452	0.0042211446
3883.09481	0.0041073253
3881.66510	0.0040251482
3880.23539	0.0039956258
3878.80567	0.0040036724
3877.37596	0.0040162909
3875.94625	0.0040115621
3874.51654	0.0039940579
3873.08683	0.0039926213
3871.65712	0.0040352070
3870.22741	0.0041195289
3868.79770	0.0042088074
3867.36799	0.0042678053
3865.93828	0.0042939475
3864.50857	0.0043111760
3863.07885	0.0043323012
3861.64914	0.0043349420
3860.21943	0.0042729029
3858.78972	0.0041127084
3857.36001	0.0038645752
3855.93030	0.0036108408
3854.50059	0.0035080109
3853.07088	0.0036815833
3851.64117	0.0040642098
3850.21146	0.0044511748
3848.78175	0.0046977336
3847.35203	0.0047704852
3845.92232	0.0046930495
3844.49261	0.0045104669
3843.06290	0.0042848759
3841.63319	0.0040952787
3840.20348	0.0040171794
3838.77377	0.0040820302
3837.34406	0.0042493492
3835.91435	0.0044363202
3834.48464	0.0045812512
3833.05493	0.0046740524
3831.62521	0.0047327210
3830.19550	0.0047671874
3828.76579	0.0047671613
3827.33608	0.0047188774
3825.90637	0.0046279505
3824.47666	0.0045269197
3823.04695	0.0044619497
3821.61724	0.0044686976
3820.18753	0.0045529990
3818.75782	0.0046934681
3817.32811	0.0048564160
3815.89839	0.0050044726
3814.46868	0.0051001664
3813.03897	0.0051160650
3811.60926	0.0050441460
3810.17955	0.0048985630
3808.74984	0.0047116284
3807.32013	0.0045238854
3805.89042	0.0043740836
3804.46071	0.0042942874
3803.03100	0.0043090321
3801.60129	0.0044309068
3800.17157	0.0046468931
3798.74186	0.0049127787
3797.31215	0.0051741386
3795.88244	0.0053951074
3794.45273	0.0055653979
3793.02302	0.0056869960
3791.59331	0.0057600713
3790.16360	0.0057815555
3788.73389	0.0057550613
3787.30418	0.0057005822
3785.87447	0.0056525087
3784.44475	0.0056457426
3783.01504	0.0056967265
3781.58533	0.0057953279
3780.15562	0.0059078853
3778.72591	0.0059911017
3777.29620	0.0060127811
3775.86649	0.0059673241
3774.43678	0.0058754794
3773.00707	0.0057730824
3771.57736	0.0056959400
3770.14765	0.0056671165
3768.71794	0.0056858421
3767.28822	0.0057315584
3765.85851	0.0057774633
3764.42880	0.0058073695
3762.99909	0.0058203032
3761.56938	0.0058260751
3760.13967	0.0058311648
3758.70996	0.0058268621
3757.28025	0.0057859626
3755.85054	0.0056819869
3754.42083	0.0055143507
3752.99112	0.0053235609
3751.56140	0.0051774653
3750.13169	0.0051281401
3748.70198	0.0051819975
3747.27227	0.0053250808
3745.84256	0.0055558276
3744.41285	0.0058613634
3742.98314	0.0061788769
3741.55343	0.0064166719
3740.12372	0.0065177227
3738.69401	0.0064933905
3737.26430	0.0064175911
3735.83458	0.0063970215
3734.40487	0.0065026660
3732.97516	0.0067070136
3731.54545	0.0069151134
3730.11574	0.0070532970
3728.68603	0.0071057091
3727.25632	0.0070996308
3725.82661	0.0070840544
3724.39690	0.0071085775
3722.96719	0.0071966830
3721.53748	0.0073317965
3720.10776	0.0074678217
3718.67805	0.0075567639
3717.24834	0.0075723836
3715.81863	0.0075198361
3714.38892	0.0074443314
3712.95921	0.0074289795
3711.52950	0.0075528920
3710.09979	0.0078121293
3708.67008	0.0081065977
3707.24037	0.0083347103
3705.81066	0.0084754052
3704.38094	0.0085801575
3702.95123	0.0087197172
3701.52152	0.0089300256
3700.09181	0.0091876276
3698.66210	0.0094319172
3697.23239	0.0096130613
3695.80268	0.0097209746
3694.37297	0.0097882971
3692.94326	0.0098820589
3691.51355	0.0100817773
3690.08384	0.0104289334
3688.65412	0.0108715631
3687.22441	0.0112906005
3685.79470	0.0115953069
3684.36499	0.0117662381
3682.93528	0.0118270963
3681.50557	0.0118150730
3680.07586	0.0117806541
3678.64615	0.0117961867
3677.21644	0.0119427443
3675.78673	0.0122629525
3674.35702	0.0127291810
3672.92730	0.0132828839
3671.49759	0.0138974804
3670.06788	0.0145724788
3668.63817	0.0152855823
3667.20846	0.0159865376
3665.77875	0.0166338068
3664.34904	0.0172182340
3662.91933	0.0177516155
3661.48962	0.0182464533
3660.05991	0.0187109113
3658.63020	0.0191560332
3657.20048	0.0195946265
3655.77077	0.0200337451
3654.34106	0.0204780567
3652.91135	0.0209591147
3651.48164	0.0215598959
3650.05193	0.0223805830
3648.62222	0.0234218240
3647.19251	0.0245270524
3645.76280	0.0255223941
3644.33309	0.0263627954
3642.90338	0.0271045230
3641.47366	0.0278159995
3640.04395	0.0285345055
3638.61424	0.0292611793
3637.18453	0.0299727339
3635.75482	0.0306418166
3634.32511	0.0312646069
3632.89540	0.0318960100
3631.46569	0.0326565765
3630.03598	0.0336646773
3628.60627	0.0348903909
3627.17656	0.0361189023
3625.74684	0.0371396206
3624.31713	0.0379155353
3622.88742	0.0385529809
3621.45771	0.0391961262
3620.02800	0.0399466082
3618.59829	0.0408209078
3617.16858	0.0417585261
3615.73887	0.0426833741
3614.30916	0.0435644090
3612.87945	0.0444264747
3611.44974	0.0453207940
3610.02003	0.0462806560
3608.59031	0.0472877547
3607.16060	0.0482823811
3605.73089	0.0492108092
3604.30118	0.0500586294
3602.87147	0.0508434735
3601.44176	0.0515900031
3600.01205	0.0523193330
3598.58234	0.0530543663
3597.15263	0.0538163111
3595.72292	0.0546066873
3594.29321	0.0554004461
3592.86349	0.0561741255
3591.43378	0.0569451079
3590.00407	0.0577747673
3588.57436	0.0587159060
3587.14465	0.0597457290
3585.71494	0.0607611164
3584.28523	0.0616621561
3582.85552	0.0624239743
3581.42581	0.0630906746
3579.99610	0.0637273490
3578.56639	0.0643835962
3577.13667	0.0650767982
3575.70696	0.0657893047
3574.27725	0.0664816201
3572.84754	0.0671254247
3571.41783	0.0677333400
3569.98812	0.0683688894
3568.55841	0.0691179857
3567.12870	0.0700260848
3565.69899	0.0710488781
3564.26928	0.0720827281
3562.83957	0.0730420426
3561.40985	0.0738975331
3559.98014	0.0746594071
3558.55043	0.0753564462
3557.12072	0.0760251507
3555.69101	0.0767010599
3554.26130	0.0774055347
3552.83159	0.0781400576
3551.40188	0.0788948238
3549.97217	0.0796655491
3548.54246	0.0804578066
3547.11275	0.0812741369
3545.68303	0.0820997953
3544.25332	0.0829043090
3542.82361	0.0836622342
3541.39390	0.0843711793
3539.96419	0.0850510821
3538.53448	0.0857295394
3537.10477	0.0864229798
3535.67506	0.0871275887
3534.24535	0.0878284946
3532.81564	0.0885186717
3531.38593	0.0892125741
3529.95621	0.0899379402
3528.52650	0.0907098725
3527.09679	0.0915122628
3525.66708	0.0923057348
3524.23737	0.0930557847
3522.80766	0.0937546045
3521.37795	0.0944188163
3519.94824	0.0950706005
3518.51853	0.0957231745
3517.08882	0.0963754654
3515.65911	0.0970174149
3514.22939	0.0976400897
3512.79968	0.0982469395
3511.36997	0.0988556147
3509.94026	0.0994877294
3508.51055	0.1001497507
3507.08084	0.1008279920
3505.65113	0.1015015095
3504.22142	0.1021597683
3502.79171	0.1028063893
3501.36200	0.1034493148
3499.93229	0.1040907949
3498.50257	0.1047271267
3497.07286	0.1053527445
3495.64315	0.1059596390
3494.21344	0.1065374091
3492.78373	0.1070830822
3491.35402	0.1076104790
3489.92431	0.1081476510
3488.49460	0.1087165326
3487.06489	0.1093160287
3485.63518	0.1099266931
3484.20547	0.1105290651
3482.77575	0.1111158580
3481.34604	0.1116826609
3479.91633	0.1122198924
3478.48662	0.1127174273
3477.05691	0.1131804585
3475.62720	0.1136344969
3474.19749	0.1141090468
3472.76778	0.1146174073
3471.33807	0.1151469499
3469.90836	0.1156688258
3468.47865	0.1161547676
3467.04893	0.1165918857
3465.61922	0.1169911847
3464.18951	0.1173806787
3462.75980	0.1177876592
3461.33009	0.1182166040
3459.90038	0.1186467558
3458.47067	0.1190493107
3457.04096	0.1194114387
3455.61125	0.1197436228
3454.18154	0.1200662032
3452.75183	0.1203961894
3451.32212	0.1207427308
3449.89240	0.1211102828
3448.46269	0.1214963645
3447.03298	0.1218887493
3445.60327	0.1222700700
3444.17356	0.1226329729
3442.74385	0.1229875311
3441.31414	0.1233515888
3439.88443	0.1237318516
3438.45472	0.1241179630
3437.02501	0.1244915575
3435.59530	0.1248383075
3434.16558	0.1251530200
3432.73587	0.1254348606
3431.30616	0.1256849915
3429.87645	0.1259074658
3428.44674	0.1261096299
3427.01703	0.1262989789
3425.58732	0.1264813095
3424.15761	0.1266648173
3422.72790	0.1268613040
3421.29819	0.1270850450
3419.86848	0.1273448765
3418.43876	0.1276402622
3417.00905	0.1279611886
3415.57934	0.1282907873
3414.14963	0.1286065131
3412.71992	0.1288855523
3411.29021	0.1291148365
3409.86050	0.1292984188
3408.43079	0.1294550449
3407.00108	0.1296062618
3405.57137	0.1297654063
3404.14166	0.1299351305
3402.71194	0.1301086098
3401.28223	0.1302757710
3399.85252	0.1304257661
3398.42281	0.1305550486
3396.99310	0.1306692213
3395.56339	0.1307796836
3394.13368	0.1308905184
3392.70397	0.1309935004
3391.27426	0.1310740113
3389.84455	0.1311270148
3388.41484	0.1311638504
3386.98512	0.1312077940
3385.55541	0.1312789768
3384.12570	0.1313863397
3382.69599	0.1315243840
3381.26628	0.1316783428
3379.83657	0.1318296343
3378.40686	0.1319630891
3376.97715	0.1320754886
3375.54744	0.1321762353
3374.11773	0.1322807521
3372.68802	0.1323967874
3371.25830	0.1325164735
3369.82859	0.1326219589
3368.39888	0.1326988935
3366.96917	0.1327478737
3365.53946	0.1327841133
3364.10975	0.1328256875
3362.68004	0.1328784078
3361.25033	0.1329321265
3359.82062	0.1329724938
3358.39091	0.1330005378
3356.96120	0.1330377758
3355.53148	0.1331124753
3354.10177	0.1332335919
3352.67206	0.1333793998
3351.24235	0.1335121989
3349.81264	0.1336054653
3348.38293	0.1336619407
3346.95322	0.1337084323
3345.52351	0.1337755173
3344.09380	0.1338788122
3342.66409	0.1340115517
3341.23438	0.1341476887
3339.80466	0.1342529953
3338.37495	0.1343007088
3336.94524	0.1342868209
3335.51553	0.1342373490
3334.08582	0.1341986358
3332.65611	0.1342166811
3331.22640	0.1343148202
3329.79669	0.1344839334
3328.36698	0.1346859336
3326.93727	0.1348723471
3325.50756	0.1350055635
3324.07784	0.1350776255
3322.64813	0.1351126432
3321.21842	0.1351504177
3319.78871	0.1352230012
3318.35900	0.1353422999
3316.92929	0.1355047673
3315.49958	0.1357063502
3314.06987	0.1359514743
3312.64016	0.1362449825
3311.21045	0.1365777850
3309.78074	0.1369176209
3308.35102	0.1372152120
3306.92131	0.1374235302
3305.49160	0.1375204772
3304.06189	0.1375211179
3302.63218	0.1374742538
3301.20247	0.1374416500
3299.77276	0.1374678016
3298.34305	0.1375576854
3296.91334	0.1376759857
3295.48363	0.1377649158
3294.05392	0.1377729475
3292.62421	0.1376774758
3291.19449	0.1374928057
3289.76478	0.1372620165
3288.33507	0.1370327622
3286.90536	0.1368317306
3285.47565	0.1366501451
3284.04594	0.1364545673
3282.61623	0.1362137049
3281.18652	0.1359229833
3279.75681	0.1356070191
3278.32710	0.1353010833
3276.89739	0.1350246668
3275.46767	0.1347645074
3274.03796	0.1344789565
3272.60825	0.1341188103
3271.17854	0.1336508542
3269.74883	0.1330739260
3268.31912	0.1324197799
3266.88941	0.1317368895
3265.45970	0.1310695261
3264.02999	0.1304418147
3262.60028	0.1298549771
3261.17057	0.1292961538
3259.74085	0.1287490129
3258.31114	0.1281988025
3256.88143	0.1276364774
3255.45172	0.1270632595
3254.02201	0.1264948100
3252.59230	0.1259548962
3251.16259	0.1254612952
3249.73288	0.1250097007
3248.30317	0.1245722771
3246.87346	0.1241127923
3245.44375	0.1236093044
3244.01403	0.1230689362
3242.58432	0.1225258410
3241.15461	0.1220247671
3239.72490	0.1215992719
3238.29519	0.1212549880
3236.86548	0.1209658310
3235.43577	0.1206855103
3234.00606	0.1203683168
3232.57635	0.1199897900
3231.14664	0.1195541471
3229.71693	0.1190871373
3228.28721	0.1186223626
3226.85750	0.1181874126
3225.42779	0.1177965850
3223.99808	0.1174495667
3222.56837	0.1171342507
3221.13866	0.1168333963
3219.70895	0.1165320650
3218.27924	0.1162230298
3216.84953	0.1159058362
3215.41982	0.1155808568
3213.99011	0.1152470484
3212.56039	0.1149036512
3211.13068	0.1145526022
3209.70097	0.1142001152
3208.27126	0.1138496697
3206.84155	0.1134984642
3205.41184	0.1131376922
3203.98213	0.1127592400
3202.55242	0.1123623699
3201.12271	0.1119564176
3199.69300	0.1115567386
3198.26329	0.1111768112
3196.83357	0.1108195111
3195.40386	0.1104726121
3193.97415	0.1101134494
3192.54444	0.1097220182
3191.11473	0.1092950553
3189.68502	0.1088481545
3188.25531	0.1084044352
3186.82560	0.1079787314
3185.39589	0.1075676307
3183.96618	0.1071546376
3182.53647	0.1067237705
3181.10675	0.1062708721
3179.67704	0.1058054417
3178.24733	0.1053421870
3176.81762	0.1048919111
3175.38791	0.1044549495
3173.95820	0.1040221080
3172.52849	0.1035808250
3171.09878	0.1031235158
3169.66907	0.1026515737
3168.23936	0.1021748632
3166.80965	0.1017058790
3165.37993	0.1012526304
3163.95022	0.1008177772
3162.52051	0.1004008725
3161.09080	0.1000029743
3159.66109	0.0996280089
3158.23138	0.0992764682
3156.80167	0.0989397392
3155.37196	0.0985976458
3153.94225	0.0982243791
3152.51254	0.0978010073
3151.08283	0.0973252505
3149.65311	0.0968132019
3148.22340	0.0962922573
3146.79369	0.0957914591
3145.36398	0.0953330845
3143.93427	0.0949282721
3142.50456	0.0945730135
3141.07485	0.0942464694
3139.64514	0.0939172432
3138.21543	0.0935573876
3136.78572	0.0931569487
3135.35601	0.0927289054
3133.92629	0.0922969580
3132.49658	0.0918783322
3131.06687	0.0914760232
3129.63716	0.0910868868
3128.20745	0.0907144994
3126.77774	0.0903735384
3125.34803	0.0900779739
3123.91832	0.0898255184
3122.48861	0.0895918906
3121.05890	0.0893406719
3119.62919	0.0890407562
3118.19948	0.0886814818
3116.76976	0.0882755890
3115.34005	0.0878526419
3113.91034	0.0874457806
3112.48063	0.0870747566
3111.05092	0.0867373049
3109.62121	0.0864119232
3108.19150	0.0860755220
3106.76179	0.0857214928
3105.33208	0.0853644535
3103.90237	0.0850272849
3102.47266	0.0847218037
3101.04294	0.0844388306
3099.61323	0.0841598138
3098.18352	0.0838756114
3096.75381	0.0835951641
3095.32410	0.0833361372
3093.89439	0.0831062496
3092.46468	0.0828934684
3091.03497	0.0826740935
3089.60526	0.0824303776
3088.17555	0.0821620673
3086.74584	0.0818837583
3085.31612	0.0816123411
3083.88641	0.0813551471
3082.45670	0.0811058357
3081.02699	0.0808477253
3079.59728	0.0805613771
3078.16757	0.0802324638
3076.73786	0.0798597410
3075.30815	0.0794593021
3073.87844	0.0790586695
3072.44873	0.0786861777
3071.01902	0.0783554837
3069.58930	0.0780587494
3068.15959	0.0777716637
3066.72988	0.0774661377
3065.30017	0.0771228969
3063.87046	0.0767394900
3062.44075	0.0763276219
3061.01104	0.0759080127
3059.58133	0.0755000412
3058.15162	0.0751148015
3056.72191	0.0747518837
3055.29220	0.0744013488
3053.86248	0.0740518570
3052.43277	0.0736963004
3051.00306	0.0733344182
3049.57335	0.0729707181
3048.14364	0.0726089180
3046.71393	0.0722478703
3045.28422	0.0718809590
3043.85451	0.0715003759
3042.42480	0.0711039677
3040.99509	0.0706997588
3039.56538	0.0703026205
3038.13566	0.0699242353
3036.70595	0.0695627481
3035.27624	0.0692029223
3033.84653	0.0688266754
3032.41682	0.0684266686
3030.98711	0.0680105314
3029.55740	0.0675937012
3028.12769	0.0671890602
3026.69798	0.0668034181
3025.26827	0.0664412230
3023.83856	0.0661094412
3022.40884	0.0658158958
3020.97913	0.0655633435
3019.54942	0.0653431267
3018.11971	0.0651348680
3016.69000	0.0649110228
3015.26029	0.0646450520
3013.83058	0.0643192008
3012.40087	0.0639319271
3010.97116	0.0634996668
3009.54145	0.0630533248
3008.11174	0.0626302138
3006.68202	0.0622645244
3005.25231	0.0619779862
3003.82260	0.0617744103
3002.39289	0.0616377816
3000.96318	0.0615379401
2999.53347	0.0614442043
2998.10376	0.0613396093
2996.67405	0.0612256192
2995.24434	0.0611146688
2993.81463	0.0610168539
2992.38492	0.0609327033
2990.95520	0.0608592629
2989.52549	0.0608020872
2988.09578	0.0607796982
2986.66607	0.0608139373
2985.23636	0.0609148629
2983.80665	0.0610707216
2982.37694	0.0612536371
2980.94723	0.0614350215
2979.51752	0.0615975074
2978.08781	0.0617366880
2976.65810	0.0618557967
2975.22838	0.0619597733
2973.79867	0.0620550811
2972.36896	0.0621536076
2970.93925	0.0622709170
2969.50954	0.0624195822
2968.07983	0.0625971183
2966.65012	0.0627810359
2965.22041	0.0629334077
2963.79070	0.0630157888
2962.36099	0.0630046576
2960.93128	0.0628987551
2959.50157	0.0627136827
2958.07185	0.0624706596
2956.64214	0.0621859282
2955.21243	0.0618692301
2953.78272	0.0615303330
2952.35301	0.0611865483
2950.92330	0.0608620904
2949.49359	0.0605784990
2948.06388	0.0603434220
2946.63417	0.0601489060
2945.20446	0.0599803925
2943.77475	0.0598296225
2942.34503	0.0597013235
2940.91532	0.0596082546
2939.48561	0.0595627949
2938.05590	0.0595689677
2936.62619	0.0596221499
2935.19648	0.0597090758
2933.76677	0.0598071329
2932.33706	0.0598856285
2930.90735	0.0599125177
2929.47764	0.0598670878
2928.04793	0.0597483143
2926.61821	0.0595728904
2925.18850	0.0593614466
2923.75879	0.0591253079
2922.32908	0.0588595048
2920.89937	0.0585473850
2919.46966	0.0581699312
2918.03995	0.0577129126
2916.61024	0.0571714714
2915.18053	0.0565535352
2913.75082	0.0558811203
2912.32111	0.0551894084
2910.89139	0.0545197204
2909.46168	0.0539060086
2908.03197	0.0533644632
2906.60226	0.0528899841
2905.17255	0.0524649471
2903.74284	0.0520732738
2902.31313	0.0517085753
2900.88342	0.0513723567
2899.45371	0.0510637648
2898.02400	0.0507730246
2896.59429	0.0504847169
2895.16457	0.0501886122
2893.73486	0.0498873368
2892.30515	0.0495954081
2890.87544	0.0493298918
2889.44573	0.0491026528
2888.01602	0.0489162654
2886.58631	0.0487692542
2885.15660	0.0486599654
2883.72689	0.0485901013
2882.29718	0.0485648289
2880.86747	0.0485884808
2879.43775	0.0486558229
2878.00804	0.0487448424
2876.57833	0.0488143526
2875.14862	0.0488165244
2873.71891	0.0487155057
2872.28920	0.0485036634
2870.85949	0.0482030064
2869.42978	0.0478512496
2868.00007	0.0474855453
2866.57036	0.0471333042
2865.14065	0.0468130335
2863.71093	0.0465380326
2862.28122	0.0463160500
2860.85151	0.0461440645
2859.42180	0.0460061058
2857.99209	0.0458768532
2856.56238	0.0457307547
2855.13267	0.0455488525
2853.70296	0.0453206822
2852.27325	0.0450393856
2850.84354	0.0446975008
2849.41383	0.0442899764
2847.98411	0.0438219272
2846.55440	0.0433162823
2845.12469	0.0428125113
2843.69498	0.0423524976
2842.26527	0.0419617966
2840.83556	0.0416376777
2839.40585	0.0413539186
2837.97614	0.0410798788
2836.54643	0.0407993272
2835.11672	0.0405171663
2833.68701	0.0402506366
2832.25729	0.0400146134
2830.82758	0.0398118533
2829.39787	0.0396347120
2827.96816	0.0394722149
2826.53845	0.0393175408
2825.10874	0.0391697511
2823.67903	0.0390318967
2822.24932	0.0389061458
2820.81961	0.0387910418
2819.38990	0.0386809520
2817.96019	0.0385706648
2816.53047	0.0384591855
2815.10076	0.0383510441
2813.67105	0.0382510163
2812.24134	0.0381575972
2810.81163	0.0380598754
2809.38192	0.0379434414
2807.95221	0.0378005244
2806.52250	0.0376369618
2805.09279	0.0374706089
2803.66308	0.0373205952
2802.23337	0.0371971168
2800.80366	0.0370965376
2799.37394	0.0370074213
2797.94423	0.0369214565
2796.51452	0.0368391424
2795.08481	0.0367649570
2793.65510	0.0366980247
2792.22539	0.0366240032
2790.79568	0.0365211889
2789.36597	0.0363748819
2787.93626	0.0361872353
2786.50655	0.0359782688
2785.07684	0.0357744917
2783.64712	0.0355971605
2782.21741	0.0354572311
2780.78770	0.0353543870
2779.35799	0.0352795571
2777.92828	0.0352166407
2776.49857	0.0351463258
2775.06886	0.0350550003
2773.63915	0.0349403545
2772.20944	0.0348122492
2770.77973	0.0346839279
2769.35002	0.0345638841
2767.92030	0.0344507694
2766.49059	0.0343385786
2765.06088	0.0342231989
2763.63117	0.0341058597
2762.20146	0.0339916013
2760.77175	0.0338837281
2759.34204	0.0337806381
2757.91233	0.0336799212
2756.48262	0.0335833691
2755.05291	0.0334989466
2753.62320	0.0334343873
2752.19348	0.0333861634
2750.76377	0.0333363228
2749.33406	0.0332602747
2747.90435	0.0331432223
2746.47464	0.0329906754
2745.04493	0.0328244455
2743.61522	0.0326680206
2742.18551	0.0325324908
2740.75580	0.0324135982
2739.32609	0.0323000401
2737.89638	0.0321827456
2736.46666	0.0320604928
2735.03695	0.0319386385
2733.60724	0.0318253115
2732.17753	0.0317276940
2730.74782	0.0316481963
2729.31811	0.0315818228
2727.88840	0.0315161869
2726.45869	0.0314353332
2725.02898	0.0313279554
2723.59927	0.0311952066
2722.16956	0.0310507119
2720.73984	0.0309144631
2719.31013	0.0308008473
2717.88042	0.0307104606
2716.45071	0.0306300372
2715.02100	0.0305412691
2713.59129	0.0304317512
2712.16158	0.0303010531
2710.73187	0.0301605165
2709.30216	0.0300267674
2707.87245	0.0299135502
2706.44274	0.0298261493
2705.01302	0.0297590848
2703.58331	0.0296988208
2702.15360	0.0296317209
2700.72389	0.0295506101
2699.29418	0.0294575188
2697.86447	0.0293599889
2696.43476	0.0292646401
2695.00505	0.0291725248
2693.57534	0.0290799849
2692.14563	0.0289830379
2690.71592	0.0288814083
2689.28620	0.0287807714
2687.85649	0.0286914129
2686.42678	0.0286251865
2684.99707	0.0285886899
2683.56736	0.0285784062
2682.13765	0.0285790972
2680.70794	0.0285691991
2679.27823	0.0285313539
2677.84852	0.0284600388
2676.41881	0.0283612963
2674.98910	0.0282475464
2673.55938	0.0281311478
2672.12967	0.0280208550
2670.69996	0.0279227067
2669.27025	0.0278406460
2667.84054	0.0277757365
2666.41083	0.0277257916
2664.98112	0.0276851207
2663.55141	0.0276454762
2662.12170	0.0275991317
2660.69199	0.0275412649
2659.26228	0.0274714902
2657.83256	0.0273940898
2656.40285	0.0273164287
2654.97314	0.0272450931
2653.54343	0.0271835513
2652.11372	0.0271314420
2650.68401	0.0270861182
2649.25430	0.0270452052
2647.82459	0.0270067472
2646.39488	0.0269684866
2644.96517	0.0269275308
2643.53546	0.0268826392
2642.10575	0.0268350001
2640.67603	0.0267880820
2639.24632	0.0267439764
2637.81661	0.0267022699
2636.38690	0.0266604293
2634.95719	0.0266175214
2633.52748	0.0265757442
2632.09777	0.0265386775
2630.66806	0.0265068952
2629.23835	0.0264772903
2627.80864	0.0264451839
2626.37893	0.0264086500
2624.94921	0.0263688751
2623.51950	0.0263290480
2622.08979	0.0262911487
2620.66008	0.0262560584
2619.23037	0.0262249298
2617.80066	0.0261987541
2616.37095	0.0261778031
2614.94124	0.0261605084
2613.51153	0.0261444524
2612.08182	0.0261290576
2610.65211	0.0261167418
2609.22239	0.0261117667
2607.79268	0.0261162464
2606.36297	0.0261282064
2604.93326	0.0261408519
2603.50355	0.0261462405
2602.07384	0.0261383224
2600.64413	0.0261176210
2599.21442	0.0260911211
2597.78471	0.0260703675
2596.35500	0.0260657500
2594.92529	0.0260804836
2593.49557	0.0261083022
2592.06586	0.0261356551
2590.63615	0.0261498690
2589.20644	0.0261457451
2587.77673	0.0261293333
2586.34702	0.0261131413
2584.91731	0.0261083022
2583.48760	0.0261192992
2582.05789	0.0261434633
2580.62818	0.0261763185
2579.19847	0.0262144804
2577.76875	0.0262552872
2576.33904	0.0262933206
2574.90933	0.0263202731
2573.47962	0.0263297614
2572.04991	0.0263240412
2570.62020	0.0263149384
2569.19049	0.0263182931
2567.76078	0.0263442844
2566.33107	0.0263927784
2564.90136	0.0264562443
2563.47165	0.0265257172
2562.04193	0.0265951734
2560.61222	0.0266602095
2559.18251	0.0267158411
2557.75280	0.0267570522
2556.32309	0.0267829597
2554.89338	0.0268000849
2553.46367	0.0268210396
2552.03396	0.0268575530
2550.60425	0.0269150808
2549.17454	0.0269913767
2547.74483	0.0270793121
2546.31511	0.0271702129
2544.88540	0.0272560082
2543.45569	0.0273307357
2542.02598	0.0273917746
2540.59627	0.0274425372
2539.16656	0.0274910983
2537.73685	0.0275463667
2536.30714	0.0276133120
2534.87743	0.0276911631
2533.44772	0.0277765915
2532.01801	0.0278674737
2530.58829	0.0279624052
2529.15858	0.0280577447
2527.72887	0.0281467792
2526.29916	0.0282208063
2524.86945	0.0282749236
2523.43974	0.0283113383
2522.01003	0.0283377264
2520.58032	0.0283638388
2519.15061	0.0283970814
2517.72090	0.0284405816
2516.29119	0.0284947008
2514.86147	0.0285582803
2513.43176	0.0286308266
2512.00205	0.0287123751
2510.57234	0.0288018212
2509.14263	0.0288947709
2507.71292	0.0289834533
2506.28321	0.0290614963
2504.85350	0.0291289780
2503.42379	0.0291945618
2501.99408	0.0292688496
2500.56437	0.0293574128
2499.13465	0.0294565782
2497.70494	0.0295557920
2496.27523	0.0296451356
2494.84552	0.0297208577
2493.41581	0.0297844224
2491.98610	0.0298411492
2490.55639	0.0298980214
2489.12668	0.0299632493
2487.69697	0.0300429389
2486.26726	0.0301368777
2484.83755	0.0302374400
2483.40784	0.0303326696
2481.97812	0.0304140933
2480.54841	0.0304812863
2479.11870	0.0305395480
2477.68899	0.0305960122
2476.25928	0.0306556504
2474.82957	0.0307236314
2473.39986	0.0308061279
2471.97015	0.0309070963
2470.54044	0.0310238525
2469.11073	0.0311451443
2467.68102	0.0312559567
2466.25130	0.0313471258
2464.82159	0.0314190537
2463.39188	0.0314786956
2461.96217	0.0315322168
2460.53246	0.0315809324
2459.10275	0.0316238068
2457.67304	0.0316635109
2456.24333	0.0317076445
2454.81362	0.0317650400
2453.38391	0.0318394601
2451.95420	0.0319257081
2450.52448	0.0320123360
2449.09477	0.0320880562
2447.66506	0.0321474522
2446.23535	0.0321930870
2444.80564	0.0322323404
2443.37593	0.0322727114
2441.94622	0.0323175788
2440.51651	0.0323661864
2439.08680	0.0324161388
2437.65709	0.0324671268
2436.22738	0.0325212739
2434.79766	0.0325816534
2433.36795	0.0326489583
2431.93824	0.0327211879
2430.50853	0.0327943787
2429.07882	0.0328628346
2427.64911	0.0329198241
2426.21940	0.0329588950
2424.78969	0.0329774357
2423.35998	0.0329799801
2421.93027	0.0329782479
2420.50056	0.0329863168
2419.07084	0.0330129080
2417.64113	0.0330569856
2416.21142	0.0331094749
2414.78171	0.0331584513
2413.35200	0.0331947431
2411.92229	0.0332158692
2410.49258	0.0332257599
2409.06287	0.0332321897
2407.63316	0.0332440659
2406.20345	0.0332670659
2404.77374	0.0333020277
2403.34402	0.0333456583
2401.91431	0.0333932638
2400.48460	0.0334420204
2399.05489	0.0334908627
2397.62518	0.0335391015
2396.19547	0.0335835665
2394.76576	0.0336191133
2393.33605	0.0336405672
2391.90634	0.0336462706
2390.47663	0.0336387195
2389.04692	0.0336223282
2387.61720	0.0336000100
2386.18749	0.0335712619
2384.75778	0.0335327238
2383.32807	0.0334794000
2381.89836	0.0334064290
2380.46865	0.0333099365
2379.03894	0.0331868939
2377.60923	0.0330365635
2376.17952	0.0328599587
2374.74981	0.0326602347
2373.32010	0.0324423574
2371.89038	0.0322152488
2370.46067	0.0319925509
2369.03096	0.0317888260
2367.60125	0.0316117220
2366.17154	0.0314599350
2364.74183	0.0313318223
2363.31212	0.0312416870
2361.88241	0.0312212966
2360.45270	0.0312965177
2359.02299	0.0314632207
2357.59328	0.0316913538
2356.16356	0.0319454074
2354.73385	0.0321976319
2353.30414	0.0324233882
2351.87443	0.0325997062
2350.44472	0.0327118672
2349.01501	0.0327587314
2347.58530	0.0327516682
2346.15559	0.0327105559
2344.72588	0.0326591171
2343.29617	0.0326186530
2341.86646	0.0326026902
2340.43674	0.0326155014
2339.00703	0.0326534249
2337.57732	0.0327055603
2336.14761	0.0327588432
2334.71790	0.0328030325
2333.28819	0.0328361429
2331.85848	0.0328643136
2330.42877	0.0328947492
2328.99906	0.0329323076
2327.56935	0.0329798684
2326.13964	0.0330409519
2324.70993	0.0331202298
2323.28021	0.0332211517
2321.85050	0.0333435908
2320.42079	0.0334824212
2318.99108	0.0336264968
2317.56137	0.0337601006
2316.13166	0.0338686146
2314.70195	0.0339451917
2313.27224	0.0339965001
2311.84253	0.0340391919
2310.41282	0.0340898409
2308.98311	0.0341551714
2307.55339	0.0342284627
2306.12368	0.0342959128
2304.69397	0.0343452469
2303.26426	0.0343723968
2301.83455	0.0343820043
2300.40484	0.0343841054
2298.97513	0.0343880020
2297.54542	0.0343983695
2296.11571	0.0344150141
2294.68600	0.0344358608
2293.25629	0.0344594829
2291.82657	0.0344859660
2290.39686	0.0345151722
2288.96715	0.0345453843
2287.53744	0.0345728248
2286.10773	0.0345939323
2284.67802	0.0346065201
2283.24831	0.0346111730
2281.81860	0.0346100815
2280.38889	0.0346070267
2278.95918	0.0346048661
2277.52947	0.0346050635
2276.09975	0.0346081182
2274.67004	0.0346150436
2273.24033	0.0346279927
2271.81062	0.0346493274
2270.38091	0.0346785150
2268.95120	0.0347103961
2267.52149	0.0347375125
2266.09178	0.0347544774
2264.66207	0.0347601399
2263.23236	0.0347571969
2261.80265	0.0347484201
2260.37293	0.0347354375
2258.94322	0.0347204916
2257.51351	0.0347079560
2256.08380	0.0347052924
2254.65409	0.0347188339
2253.22438	0.0347486436
2251.79467	0.0347869247
2250.36496	0.0348214209
2248.93525	0.0348420888
2247.50554	0.0348476991
2246.07583	0.0348454565
2244.64611	0.0348464102
2243.21640	0.0348586664
2241.78669	0.0348831005
2240.35698	0.0349141508
2238.92727	0.0349436104
2237.49756	0.0349659957
2236.06785	0.0349803902
2234.63814	0.0349900723
2233.20843	0.0349996947
2231.77872	0.0350122936
2230.34901	0.0350281447
2228.91929	0.0350447595
2227.48958	0.0350587629
2226.05987	0.0350669287
2224.63016	0.0350686125
2223.20045	0.0350655802
2221.77074	0.0350620449
2220.34103	0.0350622684
2218.91132	0.0350692868
2217.48161	0.0350827277
2216.05190	0.0351010524
2214.62219	0.0351231396
2213.19247	0.0351491049
2211.76276	0.0351788290
2210.33305	0.0352098458
2208.90334	0.0352367423
2207.47363	0.0352528542
2206.04392	0.0352530517
2204.61421	0.0352366865
2203.18450	0.0352091752
2201.75479	0.0351805128
2200.32508	0.0351618454
2198.89537	0.0351598822
2197.46565	0.0351734683
2196.03594	0.0351937339
2194.60623	0.0352102965
2193.17652	0.0352168642
2191.74681	0.0352147594
2190.31710	0.0352113619
2188.88739	0.0352141969
2187.45768	0.0352273919
2186.02797	0.0352495424
2184.59826	0.0352744460
2183.16855	0.0352947190
2181.73883	0.0353048258
2180.30912	0.0353039838
2178.87941	0.0352959521
2177.44970	0.0352864638
2176.01999	0.0352805667
2174.59028	0.0352807641
2173.16057	0.0352865458
2171.73086	0.0352950245
2170.30115	0.0353017636
2168.87144	0.0353025794
2167.44173	0.0352955610
2166.01202	0.0352827832
2164.58230	0.0352692790
2163.15259	0.0352608003
2161.72288	0.0352604650
2160.29317	0.0352673158
2158.86346	0.0352771394
2157.43375	0.0352850035
2156.00404	0.0352873877
2154.57433	0.0352841616
2153.14462	0.0352775604
2151.71491	0.0352698416
2150.28520	0.0352623723
2148.85548	0.0352563635
2147.42577	0.0352547355
2145.99606	0.0352622345
2144.56635	0.0352819413
2143.13664	0.0353120975
2141.70693	0.0353460163
2140.27722	0.0353746042
2138.84751	0.0353917070
2137.41780	0.0353945717
2135.98809	0.0353834219
2134.55838	0.0353597216
2133.12866	0.0353277102
2131.69895	0.0352944359
2130.26924	0.0352691971
2128.83953	0.0352599323
2127.40982	0.0352692232
2125.98011	0.0352931172
2124.55040	0.0353223458
2123.12069	0.0353460461
2121.69098	0.0353561267
2120.26127	0.0353511833
2118.83156	0.0353375673
2117.40184	0.0353263617
2115.97213	0.0353278518
2114.54242	0.0353447534
2113.11271	0.0353701115
2111.68300	0.0353917070
2110.25329	0.0353998244
2108.82358	0.0353942923
2107.39387	0.0353848562
2105.96416	0.0353846326
2104.53445	0.0354011990
2103.10474	0.0354326852
2101.67502	0.0354685523
2100.24531	0.0354970619
2098.81560	0.0355109125
2097.38589	0.0355103500
2095.95618	0.0355013609
2094.52647	0.0354924835
2093.09676	0.0354907140
2091.66705	0.0354992263
2090.23734	0.0355171189
2088.80763	0.0355407186
2087.37792	0.0355669297
2085.94820	0.0355938450
2084.51849	0.0356210731
2083.08878	0.0356472321
2081.65907	0.0356691256
2080.22936	0.0356826968
2078.79965	0.0356869958
2077.36994	0.0356864631
2075.94023	0.0356896967
2074.51052	0.0357041135
2073.08081	0.0357304476
2071.65110	0.0357606597
2070.22138	0.0357837379
2068.79167	0.0357932113
2067.36196	0.0357925929
2065.93225	0.0357929319
2064.50254	0.0358045101
2063.07283	0.0358291939
2061.64312	0.0358588509
2060.21341	0.0358814299
2058.78370	0.0358890183
2057.35399	0.0358827785
2055.92428	0.0358708277
2054.49456	0.0358628444
2053.06485	0.0358646438
2051.63514	0.0358755253
2050.20543	0.0358900875
2048.77572	0.0359018967
2047.34601	0.0359064788
2045.91630	0.0359031893
2044.48659	0.0358949788
2043.05688	0.0358875841
2041.62717	0.0358878970
2040.19746	0.0359012783
2038.76774	0.0359295942
2037.33803	0.0359698609
2035.90832	0.0360155329
2034.47861	0.0360594355
2033.04890	0.0360961705
2031.61919	0.0361236818
2030.18948	0.0361429825
2028.75977	0.0361558087
2027.33006	0.0361628160
2025.90035	0.0361636877
2024.47064	0.0361585394
2023.04092	0.0361506604
2021.61121	0.0361459069
2020.18150	0.0361498445
2018.75179	0.0361641385
2017.32208	0.0361845903
2015.89237	0.0362061448
2014.46266	0.0362261198
2013.03295	0.0362468325
2011.60324	0.0362728313
2010.17353	0.0363066867
2008.74382	0.0363477208
2007.31411	0.0363932922
2005.88439	0.0364415981
2004.45468	0.0364922173
2003.02497	0.0365449563
2001.59526	0.0365977846
2000.16555	0.0366461948
1998.73584	0.0366842784
1997.30613	0.0367084444
1995.87642	0.0367204174
1994.44671	0.0367277972
1993.01700	0.0367403924
1991.58729	0.0367667899
1990.15757	0.0368102901
1988.72786	0.0368693210
1987.29815	0.0369387046
1985.86844	0.0370113961
1984.43873	0.0370793380
1983.00902	0.0371362641
1981.57931	0.0371809565
1980.14960	0.0372184068
1978.71989	0.0372571312
1977.29018	0.0373045169
1975.86047	0.0373620093
1974.43075	0.0374251232
1973.00104	0.0374861583
1971.57133	0.0375397801
1970.14162	0.0375873931
1968.71191	0.0376375839
1967.28220	0.0376994945
1965.85249	0.0377740934
1964.42278	0.0378500335
1962.99307	0.0379114673
1961.56336	0.0379503369
1960.13365	0.0379737839
1958.70393	0.0379993506
1957.27422	0.0380443595
1955.84451	0.0381155163
1954.41480	0.0382069200
1952.98509	0.0383039117
1951.55538	0.0383887962
1950.12567	0.0384479016
1948.69596	0.0384783335
1947.26625	0.0384908058
1945.83654	0.0385048650
1944.40683	0.0385387801
1942.97711	0.0385992080
1941.54740	0.0386795662
1940.11769	0.0387675799
1938.68798	0.0388530046
1937.25827	0.0389307477
1935.82856	0.0389988758
1934.39885	0.0390580632
1932.96914	0.0391113423
1931.53943	0.0391630381
1930.10972	0.0392162986
1928.68001	0.0392719470
1927.25029	0.0393293314
1925.82058	0.0393883958
1924.39087	0.0394504704
1922.96116	0.0395173505
1921.53145	0.0395912118
1920.10174	0.0396746732
1918.67203	0.0397688188
1917.24232	0.0398703888
1915.81261	0.0399728604
1914.38290	0.0400714427
1912.95319	0.0401674062
1911.52347	0.0402671956
1910.09376	0.0403765216
1908.66405	0.0404940918
1907.23434	0.0406108089
1905.80463	0.0407147966
1904.37492	0.0407981016
1902.94521	0.0408602692
1901.51550	0.0409083888
1900.08579	0.0409539863
1898.65608	0.0410083793
1897.22637	0.0410779156
1895.79665	0.0411622040
1894.36694	0.0412572399
1892.93723	0.0413583033
1891.50752	0.0414632112
1890.07781	0.0415709019
1888.64810	0.0416804478
1887.21839	0.0417890213
1885.78868	0.0418932289
1884.35897	0.0419895388
1882.92926	0.0420767143
1881.49955	0.0421579182
1880.06983	0.0422397628
1878.64012	0.0423280708
1877.21041	0.0424219072
1875.78070	0.0425141677
1874.35099	0.0425968766
1872.92128	0.0426693521
1871.49157	0.0427399278
1870.06186	0.0428215973
1868.63215	0.0429225117
1867.20244	0.0430386290
1865.77273	0.0431573763
1864.34301	0.0432676934
1862.91330	0.0433685109
1861.48359	0.0434681810
1860.05388	0.0435776897
1858.62417	0.0437024534
1857.19446	0.0438363291
1855.76475	0.0439647771
1854.33504	0.0440730378
1852.90533	0.0441534109
1851.47562	0.0442069136
1850.04591	0.0442420505
1848.61619	0.0442742966
1847.18648	0.0443249494
1845.75677	0.0444142595
1844.32706	0.0445464067
1842.89735	0.0447034128
1841.46764	0.0448598117
1840.03793	0.0450024046
1838.60822	0.0451321751
1837.17851	0.0452525020
1835.74880	0.0453599878
1834.31909	0.0454483889
1832.88938	0.0455195606
1831.45966	0.0455880985
1830.02995	0.0456750505
1828.60024	0.0457940884
1827.17053	0.0459441207
1825.74082	0.0461128019
1824.31111	0.0462867916
1822.88140	0.0464569852
1821.45169	0.0466194674
1820.02198	0.0467738211
1818.59227	0.0469196104
1817.16256	0.0470538773
1815.73284	0.0471725464
1814.30313	0.0472766124
1812.87342	0.0473767519
1811.44371	0.0474887490
1810.01400	0.0476206243
1808.58429	0.0477657691
1807.15458	0.0479087681
1805.72487	0.0480392054
1804.29516	0.0481575951
1802.86545	0.0482714474
1801.43574	0.0483879298
1800.00602	0.0485100336
1798.57631	0.0486359335
1797.14660	0.0487629995
1795.71689	0.0488927960
1794.28718	0.0490345433
1792.85747	0.0492018797
1791.42776	0.0493993536
1789.99805	0.0496115722
1788.56834	0.0498125441
1787.13863	0.0499869436
1785.70892	0.0501396842
1784.27920	0.0502888411
1782.84949	0.0504502915
1781.41978	0.0506253280
1779.99007	0.0508016571
1778.56036	0.0509643480
1777.13065	0.0511056930
1775.70094	0.0512307473
1774.27123	0.0513596237
1772.84152	0.0515249111
1771.41181	0.0517504513
1769.98210	0.0520249791
1768.55238	0.0523079149
1767.12267	0.0525662601
1765.69296	0.0527968705
1764.26325	0.0530193821
1762.83354	0.0532565564
1761.40383	0.0535196215
1759.97412	0.0538066402
1758.54441	0.0541088916
1757.11470	0.0544170700
1755.68499	0.0547250025
1754.25528	0.0550350882
1752.82556	0.0553629249
1751.39585	0.0557322651
1749.96614	0.0561528541
1748.53643	0.0566023663
1747.10672	0.0570429564
1745.67701	0.0574563034
1744.24730	0.0578526296
1742.81759	0.0582481027
1741.38788	0.0586444363
1739.95817	0.0590327159
1738.52846	0.0594150163
1737.09874	0.0598203205
1735.66903	0.0602944940
1734.23932	0.0608686432
1732.80961	0.0615263097
1731.37990	0.0622133203
1729.95019	0.0628861040
1728.52048	0.0635352060
1727.09077	0.0641709641
1725.66106	0.0648013204
1724.23135	0.0654252172
1722.80164	0.0660435557
1721.37192	0.0666829422
1719.94221	0.0674147457
1718.51250	0.0683376193
1717.08279	0.0694870651
1715.65308	0.0707444474
1714.22337	0.0719186813
1712.79366	0.0729193389
1711.36395	0.0737856328
1709.93424	0.0746037960
1708.50453	0.0754428804
1707.07482	0.0763393790
1705.64510	0.0773153901
1704.21539	0.0784119442
1702.78568	0.0797112361
1701.35597	0.0813206509
1699.92626	0.0833019167
1698.49655	0.0855681375
1697.06684	0.0878775865
1695.63713	0.0899927095
1694.20742	0.0918211788
1692.77771	0.0933972523
1691.34800	0.0948024169
1689.91828	0.0961314738
1688.48857	0.0975032672
1687.05886	0.0990727842
1685.62915	0.1009749770
1684.19944	0.1031673029
1682.76973	0.1053658053
1681.34002	0.1072944030
1679.91031	0.1089218929
1678.48060	0.1103904620
1677.05089	0.1118515506
1675.62118	0.1133901626
1674.19147	0.1150318608
1672.76175	0.1167866811
1671.33204	0.1186630502
1669.90233	0.1206254289
1668.47262	0.1225761250
1667.04291	0.1244239435
1665.61320	0.1261604130
1664.18349	0.1278360784
1662.75378	0.1294586062
1661.32407	0.1309330016
1659.89436	0.1321194172
1658.46465	0.1329312176
1657.03493	0.1333507150
1655.60522	0.1333695799
1654.17551	0.1329571605
1652.74580	0.1321260780
1651.31609	0.1310020387
1649.88638	0.1297295988
1648.45667	0.1283567101
1647.02696	0.1268896610
1645.59725	0.1253935397
1644.16754	0.1239788383
1642.73783	0.1226997226
1641.30811	0.1215041354
1639.87840	0.1202681214
1638.44869	0.1188578531
1637.01898	0.1172101945
1635.58927	0.1154097691
1634.15956	0.1136355028
1632.72985	0.1119782925
1631.30014	0.1103726700
1629.87043	0.1086825207
1628.44072	0.1067862287
1627.01101	0.1046212539
1625.58129	0.1022176445
1624.15158	0.0996960029
1622.72187	0.0971919000
1621.29216	0.0947592333
1619.86245	0.0923525095
1618.43274	0.0899082348
1617.00303	0.0874566734
1615.57332	0.0851505622
1614.14361	0.0831486657
1612.71390	0.0814813226
1611.28419	0.0800584629
1609.85447	0.0787734315
1608.42476	0.0775821209
1606.99505	0.0765052587
1605.56534	0.0755760074
1604.13563	0.0747960731
1602.70592	0.0741379783
1601.27621	0.0735773370
1599.84650	0.0731066093
1598.41679	0.0727216154
1596.98708	0.0724089518
1595.55737	0.0721543357
1594.12765	0.0719582736
1592.69794	0.0718366057
1591.26823	0.0718031973
1589.83852	0.0718566775
1588.40881	0.0719845816
1586.97910	0.0721732527
1585.54939	0.0724103302
1584.11968	0.0726822317
1582.68997	0.0729777291
1581.26026	0.0733000264
1579.83055	0.0736736953
1578.40083	0.0741335526
1576.97112	0.0746926665
1575.54141	0.0753165111
1574.11170	0.0759468228
1572.68199	0.0765586719
1571.25228	0.0771802217
1569.82257	0.0778544992
1568.39286	0.0785861835
1566.96315	0.0793256611
1565.53344	0.0800145790
1564.10373	0.0806457102
1562.67401	0.0812928081
1561.24430	0.0821100846
1559.81459	0.0832677409
1558.38488	0.0847502127
1556.95517	0.0862395987
1555.52546	0.0874233991
1554.09575	0.0882599205
1552.66604	0.0888452157
1551.23633	0.0892484337
1549.80662	0.0894787014
1548.37691	0.0895180181
1546.94719	0.0893536806
1545.51748	0.0889791474
1544.08777	0.0883749202
1542.65806	0.0875162631
1541.22835	0.0864553526
1539.79864	0.0853734612
1538.36893	0.0844329521
1536.93922	0.0836269557
1535.50951	0.0828470439
1534.07980	0.0820055827
1532.65009	0.0810842514
1531.22037	0.0801197216
1529.79066	0.0791567490
1528.36095	0.0782132000
1526.93124	0.0772794858
1525.50153	0.0763415098
1524.07182	0.0753989071
1522.64211	0.0744680837
1521.21240	0.0735750645
1519.78269	0.0727386624
1518.35298	0.0719538480
1516.92327	0.0711891055
1515.49356	0.0704049245
1514.06384	0.0695734993
1512.63413	0.0686752275
1511.20442	0.0676770359
1509.77471	0.0665246695
1508.34500	0.0652003437
1506.91529	0.0638363585
1505.48558	0.0626792312
1504.05587	0.0618404858
1502.62616	0.0612291358
1501.19645	0.0607050881
1499.76674	0.0601838417
1498.33702	0.0596514903
1496.90731	0.0591417104
1495.47760	0.0586868972
1494.04789	0.0582841858
1492.61818	0.0579100959
1491.18847	0.0575574264
1489.75876	0.0572539233
1488.32905	0.0570452288
1486.89934	0.0569533445
1485.46963	0.0569581538
1484.03992	0.0570208766
1482.61020	0.0571127720
1481.18049	0.0572238266
1479.75078	0.0573573895
1478.32107	0.0575251840
1476.89136	0.0577494279
1475.46165	0.0580614470
1474.03194	0.0584798828
1472.60223	0.0589697026
1471.17252	0.0594421737
1469.74281	0.0598188378
1468.31310	0.0600787476
1466.88338	0.0602471195
1465.45367	0.0603646599
1464.02396	0.0604631007
1462.59425	0.0605579652
1461.16454	0.0606561191
1459.73483	0.0607698709
1458.30512	0.0609139726
1456.87541	0.0610797182
1455.44570	0.0612209104
1454.01599	0.0612906888
1452.58628	0.0612788834
1451.15656	0.0612028502
1449.72685	0.0610858276
1448.29714	0.0609482229
1446.86743	0.0608045310
1445.43772	0.0606588572
1444.00801	0.0605025254
1442.57830	0.0603188537
1441.14859	0.0600939654
1439.71888	0.0598279275
1438.28917	0.0595424548
1436.85946	0.0592791587
1435.42974	0.0590777025
1434.00003	0.0589532182
1432.57032	0.0588977747
1431.14061	0.0589009486
1429.71090	0.0589592047
1428.28119	0.0590715930
1426.85148	0.0592317432
1425.42177	0.0594284013
1423.99206	0.0596531518
1422.56235	0.0599068142
1421.13264	0.0601980835
1419.70292	0.0605335608
1418.27321	0.0609050356
1416.84350	0.0612889603
1415.41379	0.0616618879
1413.98408	0.0620140843
1412.55437	0.0623476505
1411.12466	0.0626674145
1409.69495	0.0629733801
1408.26524	0.0632596835
1406.83553	0.0635170788
1405.40582	0.0637351125
1403.97610	0.0639026612
1402.54639	0.0640097335
1401.11668	0.0640519112
1399.68697	0.0640330091
1398.25726	0.0639649779
1396.82755	0.0638627410
1395.39784	0.0637378693
1393.96813	0.0635940880
1392.53842	0.0634255782
1391.10871	0.0632200688
1389.67900	0.0629641637
1388.24928	0.0626535118
1386.81957	0.0623006187
1385.38986	0.0619323663
1383.96015	0.0615742095
1382.53044	0.0612371862
1381.10073	0.0609204322
1379.67102	0.0606232882
1378.24131	0.0603548437
1376.81160	0.0601310097
1375.38189	0.0599656813
1373.95218	0.0598606393
1372.52246	0.0598031506
1371.09275	0.0597713962
1369.66304	0.0597428195
1368.23333	0.0597003438
1366.80362	0.0596384518
1365.37391	0.0595673360
1363.94420	0.0595122613
1362.51449	0.0595016032
1361.08478	0.0595483035
1359.65507	0.0596411563
1358.22536	0.0597546995
1356.79565	0.0598663129
1355.36593	0.0599672571
1353.93622	0.0600611493
1352.50651	0.0601578839
1351.07680	0.0602641292
1349.64709	0.0603764988
1348.21738	0.0604814887
1346.78767	0.0605622791
1345.35796	0.0606090352
1343.92825	0.0606257617
1342.49854	0.0606303737
1341.06883	0.0606486201
1339.63911	0.0607020818
1338.20940	0.0607972629
1336.77969	0.0609223992
1335.34998	0.0610574633
1333.92027	0.0611897372
1332.49056	0.0613215417
1331.06085	0.0614671968
1329.63114	0.0616407059
1328.20143	0.0618437976
1326.77172	0.0620636232
1325.34201	0.0622823015
1323.91229	0.0624900907
1322.48258	0.0626901463
1321.05287	0.0628925040
1319.62316	0.0631026775
1318.19345	0.0633161366
1316.76374	0.0635222867
1315.33403	0.0637121797
1313.90432	0.0638837367
1312.47461	0.0640409589
1311.04490	0.0641900524
1309.61519	0.0643373951
1308.18547	0.0644882917
1306.75576	0.0646455884
1305.32605	0.0648072362
1303.89634	0.0649660304
1302.46663	0.0651126429
1301.03692	0.0652414635
1299.60721	0.0653546154
1298.17750	0.0654598549
1296.74779	0.0655648485
1295.31808	0.0656717271
1293.88837	0.0657774955
1292.45865	0.0658778623
1291.02894	0.0659718961
1289.59923	0.0660627559
1288.16952	0.0661554411
1286.73981	0.0662529171
1285.31010	0.0663555935
1283.88039	0.0664611012
1282.45068	0.0665671825
1281.02097	0.0666719601
1279.59126	0.0667752549
1278.16155	0.0668793842
1276.73183	0.0669889152
1275.30212	0.0671106502
1273.87241	0.0672524571
1272.44270	0.0674217939
1271.01299	0.0676240698
1269.58328	0.0678620338
1268.15357	0.0681362823
1266.72386	0.0684459135
1265.29415	0.0687884912
1263.86444	0.0691596344
1262.43473	0.0695523843
1261.00501	0.0699596331
1259.57530	0.0703771561
1258.14559	0.0708043203
1256.71588	0.0712397024
1255.28617	0.0716730282
1253.85646	0.0720814094
1252.42675	0.0724335387
1250.99704	0.0727022141
1249.56733	0.0728753060
1248.13762	0.0729599670
1246.70791	0.0729737803
1245.27819	0.0729333311
1243.84848	0.0728448480
1242.41877	0.0727059171
1240.98906	0.0725132823
1239.55935	0.0722710416
1238.12964	0.0719921291
1236.69993	0.0716937855
1235.27022	0.0713904649
1233.84051	0.0710906163
1232.41080	0.0707973093
1230.98109	0.0705103874
1229.55137	0.0702272654
1228.12166	0.0699426383
1226.69195	0.0696504712
1225.26224	0.0693470538
1223.83253	0.0690328255
1222.40282	0.0687130764
1220.97311	0.0683948249
1219.54340	0.0680847391
1218.11369	0.0677885562
1216.68398	0.0675111413
1215.25427	0.0672555715
1213.82455	0.0670222640
1212.39484	0.0668087006
1210.96513	0.0666124150
1209.53542	0.0664343163
1208.10571	0.0662797540
1206.67600	0.0661572814
1205.24629	0.0660751462
1203.81658	0.0660393387
1202.38687	0.0660533533
1200.95716	0.0661190897
1199.52745	0.0662370846
1198.09774	0.0664067492
1196.66802	0.0666257814
1195.23831	0.0668901950
1193.80860	0.0671952814
1192.37889	0.0675377250
1190.94918	0.0679168105
1189.51947	0.0683324710
1188.08976	0.0687814876
1186.66005	0.0692552626
1185.23034	0.0697424933
1183.80063	0.0702361539
1182.37092	0.0707407892
1180.94120	0.0712714866
1179.51149	0.0718459263
1178.08178	0.0724733919
1176.65207	0.0731477812
1175.22236	0.0738497600
1173.79265	0.0745552331
1172.36294	0.0752465650
1170.93323	0.0759197548
1169.50352	0.0765851960
1168.07381	0.0772604346
1166.64410	0.0779590607
1165.21438	0.0786838159
1163.78467	0.0794265717
1162.35496	0.0801746100
1160.92525	0.0809162706
1159.49554	0.0816435814
1158.06583	0.0823524594
1156.63612	0.0830447227
1155.20641	0.0837279558
1153.77670	0.0844111964
1152.34699	0.0850994810
1150.91728	0.0857904330
1149.48756	0.0864819214
1148.05785	0.0871819779
1146.62814	0.0879125744
1145.19843	0.0886996761
1143.76872	0.0895585790
1142.33901	0.0904876590
1140.90930	0.0914741084
1139.47959	0.0925070345
1138.04988	0.0935822353
1136.62017	0.0946987718
1135.19046	0.0958508775
1133.76074	0.0970261842
1132.33103	0.0982125625
1130.90132	0.0994078889
1129.47161	0.1006224081
1128.04190	0.1018715873
1126.61219	0.1031629071
1125.18248	0.1044861972
1123.75277	0.1058160365
1122.32306	0.1071253195
1120.89335	0.1083992198
1119.46364	0.1096403152
1118.03392	0.1108603030
1116.60421	0.1120670438
1115.17450	0.1132574230
1113.74479	0.1144206524
1112.31508	0.1155452281
1110.88537	0.1166229695
1109.45566	0.1176482439
1108.02595	0.1186152548
1106.59624	0.1195195466
1105.16653	0.1203590930
1103.73682	0.1211324558
1102.30710	0.1218345687
1100.87739	0.1224549636
1099.44768	0.1229819953
1098.01797	0.1234122887
1096.58826	0.1237559468
1095.15855	0.1240333244
1093.72884	0.1242654622
1092.29913	0.1244621798
1090.86942	0.1246177331
1089.43971	0.1247136593
1088.01000	0.1247259751
1086.58028	0.1246325597
1085.15057	0.1244168431
1083.72086	0.1240712181
1082.29115	0.1235993207
1080.86144	0.1230167001
1079.43173	0.1223473921
1078.00202	0.1216146499
1076.57231	0.1208308637
1075.14260	0.1199943945
1073.71289	0.1190950349
1072.28318	0.1181234270
1070.85346	0.1170775741
1069.42375	0.1159611419
1067.99404	0.1147785783
1066.56433	0.1135313064
1065.13462	0.1122175157
1063.70491	0.1108331382
1062.27520	0.1093733013
1060.84549	0.1078345329
1059.41578	0.1062187999
1057.98607	0.1045375988
1056.55636	0.1028108224
1055.12664	0.1010608897
1053.69693	0.0993044823
1052.26722	0.0975501537
1050.83751	0.0958026275
1049.40780	0.0940699801
1047.97809	0.0923672095
1046.54838	0.0907128379
1045.11867	0.0891215131
1043.68896	0.0875972360
1042.25925	0.0861346647
1040.82954	0.0847257674
1039.39983	0.0833675265
1037.97011	0.0820648670
1036.54040	0.0808281153
1035.11069	0.0796654597
1033.68098	0.0785804465
1032.25127	0.0775720030
1030.82156	0.0766373798
1029.39185	0.0757730231
1027.96214	0.0749743730
1026.53243	0.0742342770
1025.10272	0.0735459700
1023.67301	0.0729064792
1022.24329	0.0723232701
1020.81358	0.0718148649
1019.38387	0.0714077950
1017.95416	0.0711283013
1016.52445	0.0709922686
1015.09474	0.0709992126
1013.66503	0.0711337253
1012.23532	0.0713737160
1010.80561	0.0717018768
1009.37590	0.0721128285
1007.94619	0.0726129860
1006.51647	0.0732112899
1005.08676	0.0739104226
1003.65705	0.0747007877
1002.22734	0.0755616501
1000.79763	0.0764661729
999.36792	0.0773856416
997.93821	0.0782899410
996.50850	0.0791459978
995.07879	0.0799162760
993.64908	0.0805611908
992.21937	0.0810459033
990.78965	0.0813484639
989.35994	0.0814657360
987.93023	0.0814102814
986.50052	0.0812014788
985.07081	0.0808560178
983.64110	0.0803849399
982.21139	0.0797968358
980.78168	0.0791013092
979.35197	0.0783093497
977.92226	0.0774302185
976.49255	0.0764734596
975.06283	0.0754539073
973.63312	0.0743960962
972.20341	0.0733304322
970.77370	0.0722826347
969.34399	0.0712641329
967.91428	0.0702726692
966.48457	0.0693010762
965.05486	0.0683479831
963.62515	0.0674236342
962.19544	0.0665491968
960.76573	0.0657507181
959.33601	0.0650500059
957.90630	0.0644560456
956.47659	0.0639626682
955.04688	0.0635536909
953.61717	0.0632131845
952.18746	0.0629317611
950.75775	0.0627057850
949.32804	0.0625317618
947.89833	0.0624031126
946.46862	0.0623119101
945.03891	0.0622506924
943.60919	0.0622136481
942.17948	0.0621940829
940.74977	0.0621833578
939.32006	0.0621713810
937.89035	0.0621471256
936.46064	0.0621001758
935.03093	0.0620242953
933.60122	0.0619202442
932.17151	0.0617967919
930.74180	0.0616639741
929.31209	0.0615252927
927.88237	0.0613755360
926.45266	0.0612070821
925.02295	0.0610180162
923.59324	0.0608152784
922.16353	0.0606082305
920.73382	0.0604010411
919.30411	0.0601910688
917.87440	0.0599729642
916.44469	0.0597452559
915.01498	0.0595110171
913.58527	0.0592752695
912.15555	0.0590427667
910.72584	0.0588211194
909.29613	0.0586249717
907.86642	0.0584752038
906.43671	0.0583907440
905.00700	0.0583766215
903.57729	0.0584188774
902.14758	0.0584918484
900.71787	0.0585749038
899.28816	0.0586650595
897.85845	0.0587780252
896.42873	0.0589373857
894.99902	0.0591619387
893.56931	0.0594580546
892.13960	0.0598179735
890.70989	0.0602216646
889.28018	0.0606413558
887.85047	0.0610508770
886.42076	0.0614350513
884.99105	0.0617936291
883.56134	0.0621357150
882.13163	0.0624702126
880.70192	0.0627997592
879.27220	0.0631225258
877.84249	0.0634358525
876.41278	0.0637367293
874.98307	0.0640182495
873.55336	0.0642680824
872.12365	0.0644716024
870.69394	0.0646187067
869.26423	0.0647094026
867.83452	0.0647531822
866.40481	0.0647632480
864.97510	0.0647491813
863.54538	0.0647112653
862.11567	0.0646421388
860.68596	0.0645325929
859.25625	0.0643766895
857.82654	0.0641706660
856.39683	0.0639083534
854.96712	0.0635807812
853.53741	0.0631836578
852.10770	0.0627293810
850.67799	0.0622490495
849.24828	0.0617806464
847.81856	0.0613504909
846.38885	0.0609613881
844.95914	0.0605964139
843.52943	0.0602319837
842.09972	0.0598531812
840.67001	0.0594605505
839.24030	0.0590684786
837.81059	0.0586938001
836.38088	0.0583460033
834.95117	0.0580206141
833.52146	0.0577035099
832.09174	0.0573804937
830.66203	0.0570472628
829.23232	0.0567116961
827.80261	0.0563899167
826.37290	0.0560986809
824.94319	0.0558482371
823.51348	0.0556365699
822.08377	0.0554504730
820.65406	0.0552740991
819.22435	0.0550990626
817.79464	0.0549297035
816.36492	0.0547750071
814.93521	0.0546371303
813.50550	0.0545094460
812.07579	0.0543861762
810.64608	0.0542736165
809.21637	0.0541910529
807.78666	0.0541558936
806.35695	0.0541697070
804.92724	0.0542132854
803.49753	0.0542556047
802.06782	0.0542674847
800.63810	0.0542336665
799.20839	0.0541583560
797.77868	0.0540645607
796.34897	0.0539847948
794.91926	0.0539470427
793.48955	0.0539614893
792.05984	0.0540172420
790.63013	0.0540895984
789.20042	0.0541524030
787.77071	0.0541874766
786.34100	0.0541892350
784.91128	0.0541651025
783.48157	0.0541328155
782.05186	0.0541123189
780.62215	0.0541156940
779.19244	0.0541416705
777.76273	0.0541777983
776.33302	0.0542094707
774.90331	0.0542283580
773.47360	0.0542348996
772.04389	0.0542372763
770.61418	0.0542483889
769.18446	0.0542813018
767.75475	0.0543434583
766.32504	0.0544287786
764.89533	0.0545166656
763.46562	0.0545798019
762.03591	0.0545999669
760.60620	0.0545787439
759.17649	0.0545349531
757.74678	0.0544914864
756.31707	0.0544630215
754.88736	0.0544522256
753.45764	0.0544575341
752.02793	0.0544787794
750.59822	0.0545173436
749.16851	0.0545705259
747.73880	0.0546293482
746.30909	0.0546816662
744.87938	0.0547182187
743.44967	0.0547345132
742.01996	0.0547290519
740.59025	0.0547052398
739.16054	0.0546745583
737.73082	0.0546572693
736.30111	0.0546720363
734.87140	0.0547219180
733.44169	0.0547905117
732.01198	0.0548544191
730.58227	0.0549052060
729.15256	0.0549599342
727.72285	0.0550536290
726.29314	0.0552170686
724.86343	0.0554573834
723.43372	0.0557510145
722.00401	0.0560517646
720.57429	0.0563095734
719.14458	0.0564948618
717.71487	0.0566129237
716.28516	0.0566980392
714.85545	0.0567902252
713.42574	0.0569096655
711.99603	0.0570499226
710.56632	0.0571896322
709.13661	0.0573126078
707.70690	0.0574191958
706.27719	0.0575220808
704.84747	0.0576337427
703.41776	0.0577568486
701.98805	0.0578835942
700.55834	0.0579999350
699.12863	0.0580913611
697.69892	0.0581477359
696.26921	0.0581653155
694.83950	0.0581459887
693.40979	0.0580950603
691.98008	0.0580182485
690.55037	0.0579207726
689.12065	0.0578077659
687.69094	0.0576839671
686.26123	0.0575532019
684.83152	0.0574223548
683.40181	0.0573080890
681.97210	0.0572366454
680.54239	0.0572308563
679.11268	0.0572875626
677.68297	0.0573658086
676.25326	0.0574021488
674.82355	0.0573460162
673.39383	0.0571904592
671.96412	0.0569805540
670.53441	0.0568096973
669.10470	0.0567900762
667.67499	0.0569692217
666.24528	0.0572637878
664.81557	0.0575291738
663.38586	0.0576756336
661.95615	0.0576953813
660.52644	0.0576308779
659.09673	0.0575434193
657.66701	0.0574841388
656.23730	0.0574701317
654.80759	0.0574826896
653.37788	0.0574918501
651.94817	0.0574840195
650.51846	0.0574703999
649.08875	0.0574723482
647.65904	0.0574977621
646.22933	0.0575303286
644.79962	0.0575381592
643.36991	0.0574955754
641.94019	0.0573980995
640.51048	0.0572619848
639.08077	0.0571117699
637.65106	0.0569672137
636.22135	0.0568354242
634.79164	0.0567073300
633.36193	0.0565571897
631.93222	0.0563457943
630.50251	0.0560338274
629.07280	0.0555991717
627.64309	0.0550520420
626.21337	0.0544337966
624.78366	0.0538011901
623.35395	0.0532035939
621.92424	0.0526718311
620.49453	0.0522230417
619.06482	0.0518654212
617.63511	0.0515931807
616.20540	0.0513884388
614.77569	0.0512402430
613.34598	0.0511641391
611.91627	0.0511884578
610.48655	0.0513133295
609.05684	0.0514867045
607.62713	0.0516327694
606.19742	0.0517153107
604.76771	0.0517689399
603.33800	0.0518691838
601.90829	0.0520698614
600.47858	0.0523655601
599.04887	0.0527012050
