3997.47168	0.0304216444
3996.04197	0.0304243937
3994.61226	0.0303974915
3993.18255	0.0303492695
3991.75284	0.0302976128
3990.32312	0.0302658603
3988.89341	0.0302725770
3987.46370	0.0303210393
3986.03399	0.0303941593
3984.60428	0.0304625984
3983.17457	0.0305013359
3981.74486	0.0305017792
3980.31515	0.0304718465
3978.88544	0.0304256156
3977.45573	0.0303752534
3976.02602	0.0303270072
3974.59630	0.0302841775
3973.16659	0.0302487090
3971.73688	0.0302208997
3970.30717	0.0301995873
3968.87746	0.0301840473
3967.44775	0.0301726423
3966.01804	0.0301618762
3964.58833	0.0301449783
3963.15862	0.0301175117
3961.72891	0.0300852731
3960.29920	0.0300643835
3958.86948	0.0300710127
3957.43977	0.0301067177
3956.01006	0.0301538575
3954.58035	0.0301861577
3953.15064	0.0301870443
3951.72093	0.0301606841
3950.29122	0.0301276091
3948.86151	0.0301095210
3947.43180	0.0301132649
3946.00209	0.0301273596
3944.57238	0.0301359054
3943.14266	0.0301337410
3941.71295	0.0301321875
3940.28324	0.0301485024
3938.85353	0.0301875174
3937.42382	0.0302344710
3935.99411	0.0302638616
3934.56440	0.0302594211
3933.13469	0.0302270055
3931.70498	0.0301917903
3930.27527	0.0301784426
3928.84556	0.0301922895
3927.41585	0.0302208439
3925.98613	0.0302470159
3924.55642	0.0302608088
3923.12671	0.0302600600
3921.69700	0.0302443504
3920.26729	0.0302143786
3918.83758	0.0301766954
3917.40787	0.0301500838
3915.97816	0.0301569104
3914.54845	0.0302064419
3913.11874	0.0302818473
3911.68903	0.0303452164
3910.25931	0.0303550437
3908.82960	0.0302841775
3907.39989	0.0301306061
3905.97018	0.0299223978
3904.54047	0.0297135673
3903.11076	0.0295693409
3901.68105	0.0295337085
3900.25134	0.0296019297
3898.82163	0.0297248494
3897.39192	0.0298448652
3895.96221	0.0299219266
3894.53249	0.0299421437
3893.10278	0.0299137738
3891.67307	0.0298613906
3890.24336	0.0298131462
3888.81365	0.0297835637
3887.38394	0.0297681503
3885.95423	0.0297516827
3884.52452	0.0297225490
3883.09481	0.0296846852
3881.66510	0.0296570808
3880.23539	0.0296590198
3878.80567	0.0296941921
3877.37596	0.0297471099
3875.94625	0.0297928788
3874.51654	0.0298144203
3873.08683	0.0298112053
3871.65712	0.0297991727
3870.22741	0.0297952630
3868.79770	0.0298036356
3867.36799	0.0298163071
3865.93828	0.0298290607
3864.50857	0.0298516583
3863.07885	0.0298996307
3861.64914	0.0299746487
3860.21943	0.0300530083
3858.78972	0.0300895162
3857.36001	0.0300304014
3855.93030	0.0298411492
3854.50059	0.0295640212
3853.07088	0.0293527059
3851.64117	0.0293504894
3850.21146	0.0295396093
3848.78175	0.0297952630
3847.35203	0.0300089028
3845.92232	0.0301282480
3844.49261	0.0301460326
3843.06290	0.0300846063
3841.63319	0.0299781989
3840.20348	0.0298585352
3838.77377	0.0297483560
3837.34406	0.0296675004
3835.91435	0.0296346303
3834.48464	0.0296603777
3833.05493	0.0297398176
3831.62521	0.0298506040
3830.19550	0.0299588945
3828.76579	0.0300309546
3827.33608	0.0300463792
3825.90637	0.0300060194
3824.47666	0.0299309120
3823.04695	0.0298530441
3821.61724	0.0297994222
3820.18753	0.0297819283
3818.75782	0.0297990069
3817.32811	0.0298499390
3815.89839	0.0299383998
3814.46868	0.0300607756
3813.03897	0.0301951207
3811.60926	0.0303061604
3810.17955	0.0303604845
3808.74984	0.0303435791
3807.32013	0.0302712992
3805.89042	0.0301846024
3804.46071	0.0301250853
3803.03100	0.0301095210
3801.60129	0.0301296078
3800.17157	0.0301739480
3798.74186	0.0302439351
3797.31215	0.0303469095
3795.88244	0.0304818694
3794.45273	0.0306330938
3793.02302	0.0307738390
3791.59331	0.0308756325
3790.16360	0.0309194662
3788.73389	0.0309059285
3787.30418	0.0308609866
3785.87447	0.0308267195
3784.44475	0.0308356415
3783.01504	0.0308903642
3781.58533	0.0309671108
3780.15562	0.0310410634
3778.72591	0.0311049614
3777.29620	0.0311623886
3775.86649	0.0312089194
3774.43678	0.0312246066
3773.00707	0.0311898943
3771.57736	0.0311048776
3770.14765	0.0309983026
3768.71794	0.0309133232
3767.28822	0.0308778845
3765.85851	0.0308867786
3764.42880	0.0309105981
3762.99909	0.0309201330
3761.56938	0.0309041217
3760.13967	0.0308731608
3758.70996	0.0308490358
3757.28025	0.0308408923
3755.85054	0.0308300834
3754.42083	0.0307817310
3752.99112	0.0306727905
3751.56140	0.0305177476
3750.13169	0.0303658694
3748.70198	0.0302657764
3747.27227	0.0302473195
3745.84256	0.0303383041
3744.41285	0.0305647925
3742.98314	0.0309115164
3741.55343	0.0313016623
3740.12372	0.0316308774
3738.69401	0.0318123884
3737.26430	0.0318071246
3735.83458	0.0316541530
3734.40487	0.0314779691
3732.97516	0.0314092599
3731.54545	0.0314820334
3730.11574	0.0316359997
3728.68603	0.0317904688
3727.25632	0.0318939500
3725.82661	0.0319379680
3724.39690	0.0319512039
3722.96719	0.0319799036
3721.53748	0.0320584290
3720.10776	0.0321896002
3718.67805	0.0323455483
3717.24834	0.0324835293
3715.81863	0.0325623155
3714.38892	0.0325629860
3712.95921	0.0325167291
3711.52950	0.0325118452
3710.09979	0.0326333866
3708.67008	0.0328790024
3707.24037	0.0331639275
3705.81066	0.0334017612
3704.38094	0.0335591212
3702.95123	0.0336568467
3701.52152	0.0337446034
3700.09181	0.0338651463
3698.66210	0.0340293385
3697.23239	0.0342200883
3695.80268	0.0344147049
3694.37297	0.0346044451
3692.94326	0.0347992331
3691.51355	0.0350202322
3690.08384	0.0352765247
3688.65412	0.0355470665
3687.22441	0.0357987471
3685.79470	0.0360203683
3684.36499	0.0362263471
3682.93528	0.0364319682
3681.50557	0.0366376340
3680.07586	0.0368329696
3678.64615	0.0370115377
3677.21644	0.0371850170
3675.78673	0.0373805165
3674.35702	0.0376281813
3672.92730	0.0379536971
3671.49759	0.0383827724
3670.06788	0.0389315672
3668.63817	0.0395848304
3667.20846	0.0402981527
3665.77875	0.0410255641
3664.34904	0.0417397730
3662.91933	0.0424259603
3661.48962	0.0430700704
3660.05991	0.0436595716
3658.63020	0.0441971123
3657.20048	0.0447066240
3655.77077	0.0452162176
3654.34106	0.0457400456
3652.91135	0.0462846011
3651.48164	0.0468785428
3650.05193	0.0475825816
3648.62222	0.0484384559
3647.19251	0.0494015291
3645.76280	0.0503747910
3644.33309	0.0512990542
3642.90338	0.0521738827
3641.47366	0.0530245900
3640.04395	0.0538741238
3638.61424	0.0547301099
3637.18453	0.0555802248
3635.75482	0.0563959591
3634.32511	0.0571508892
3632.89540	0.0578521267
3631.46569	0.0585671142
3630.03598	0.0594041236
3628.60627	0.0604229383
3627.17656	0.0615559556
3625.74684	0.0626704693
3624.31713	0.0636868775
3622.88742	0.0646060556
3621.45771	0.0654694885
3620.02800	0.0663224831
3618.59829	0.0671952814
3617.16858	0.0680934936
3615.73887	0.0690035447
3614.30916	0.0699098259
3612.87945	0.0708154365
3611.44974	0.0717466995
3610.02003	0.0727314427
3608.59031	0.0737686008
3607.16060	0.0748187378
3605.73089	0.0758306980
3604.30118	0.0767728761
3602.87147	0.0776404366
3601.44176	0.0784459636
3600.01205	0.0792187825
3598.58234	0.0800040290
3597.15263	0.0808461383
3595.72292	0.0817563087
3594.29321	0.0826978907
3592.86349	0.0836161301
3591.43378	0.0844868794
3590.00407	0.0853374153
3588.57436	0.0862218216
3587.14465	0.0871693492
3585.71494	0.0881539285
3584.28523	0.0891209990
3582.85552	0.0900331289
3581.42581	0.0908891484
3579.99610	0.0917132571
3578.56639	0.0925369188
3577.13667	0.0933792517
3575.70696	0.0942339227
3574.27725	0.0950730145
3572.84754	0.0958688632
3571.41783	0.0966170430
3569.98812	0.0973407030
3568.55841	0.0980803370
3567.12870	0.0988738760
3565.69899	0.0997386649
3564.26928	0.1006650627
3562.83957	0.1016225889
3561.40985	0.1025713161
3559.98014	0.1034761891
3558.55043	0.1043243259
3557.12072	0.1051312536
3555.69101	0.1059271917
3554.26130	0.1067337319
3552.83159	0.1075541377
3551.40188	0.1083856300
3549.97217	0.1092321053
3548.54246	0.1101042777
3547.11275	0.1110039055
3545.68303	0.1119159907
3544.25332	0.1128158271
3542.82361	0.1136842370
3541.39390	0.1145160049
3539.96419	0.1153191179
3538.53448	0.1161094531
3537.10477	0.1169019639
3535.67506	0.1176993921
3534.24535	0.1184912473
3532.81564	0.1192646548
3531.38593	0.1200228259
3529.95621	0.1207861826
3528.52650	0.1215754375
3527.09679	0.1223920658
3525.66708	0.1232190356
3524.23737	0.1240386665
3522.80766	0.1248468012
3521.37795	0.1256491095
3519.94824	0.1264514476
3518.51853	0.1272543371
3517.08882	0.1280543655
3515.65911	0.1288423985
3514.22939	0.1296025962
3512.79968	0.1303205043
3511.36997	0.1309962720
3509.94026	0.1316481680
3508.51055	0.1323025525
3507.08084	0.1329751909
3505.65113	0.1336670071
3504.22142	0.1343711764
3502.79171	0.1350810230
3501.36200	0.1357900798
3499.93229	0.1364916414
3498.50257	0.1371824145
3497.07286	0.1378658861
3495.64315	0.1385473460
3494.21344	0.1392273158
3492.78373	0.1399026662
3491.35402	0.1405721605
3489.92431	0.1412388533
3488.49460	0.1419034153
3487.06489	0.1425594687
3485.63518	0.1431997269
3484.20547	0.1438262761
3482.77575	0.1444483101
3481.34604	0.1450673640
3479.91633	0.1456702203
3478.48662	0.1462411135
3477.05691	0.1467816830
3475.62720	0.1473142356
3474.19749	0.1478649080
3472.76778	0.1484432071
3471.33807	0.1490374058
3469.90836	0.1496230513
3468.47865	0.1501760334
3467.04893	0.1506828070
3465.61922	0.1511487514
3464.18951	0.1515978426
3462.75980	0.1520595402
3461.33009	0.1525457203
3459.90038	0.1530408412
3458.47067	0.1535177529
3457.04096	0.1539637595
3455.61125	0.1543911695
3454.18154	0.1548242122
3452.75183	0.1552776247
3451.32212	0.1557496339
3449.89240	0.1562274992
3448.46269	0.1566971689
3447.03298	0.1571483463
3445.60327	0.1575772166
3444.17356	0.1579890847
3442.74385	0.1583941877
3441.31414	0.1587979198
3439.88443	0.1591937393
3438.45472	0.1595697999
3437.02501	0.1599229127
3435.59530	0.1602630615
3434.16558	0.1606030762
3432.73587	0.1609456390
3431.30616	0.1612804681
3429.87645	0.1615961492
3428.44674	0.1618898958
3427.01703	0.1621680707
3425.58732	0.1624401361
3424.15761	0.1627132893
3422.72790	0.1629920751
3421.29819	0.1632794738
3419.86848	0.1635777205
3418.43876	0.1638860852
3417.00905	0.1641995162
3415.57934	0.1645060480
3414.14963	0.1647903472
3412.71992	0.1650404781
3411.29021	0.1652576178
3409.86050	0.1654579341
3408.43079	0.1656628549
3407.00108	0.1658870280
3405.57137	0.1661324501
3404.14166	0.1663921326
3402.71194	0.1666551232
3401.28223	0.1669080555
3399.85252	0.1671364307
3398.42281	0.1673311591
3396.99310	0.1674964875
3395.56339	0.1676474512
3394.13368	0.1677959263
3392.70397	0.1679392904
3391.27426	0.1680652201
3389.84455	0.1681651026
3388.41484	0.1682436466
3386.98512	0.1683160365
3385.55541	0.1683968902
3384.12570	0.1684968472
3382.69599	0.1686223596
3381.26628	0.1687765121
3379.83657	0.1689562201
3378.40686	0.1691522449
3376.97715	0.1693533361
3375.54744	0.1695513129
3374.11773	0.1697417498
3372.68802	0.1699202210
3371.25830	0.1700810641
3369.82859	0.1702195704
3368.39888	0.1703376025
3366.96917	0.1704417616
3365.53946	0.1705380976
3364.10975	0.1706264615
3362.68004	0.1706995517
3361.25033	0.1707501858
3359.82062	0.1707832068
3358.39091	0.1708214879
3356.96120	0.1708988696
3355.53148	0.1710391641
3354.10177	0.1712360531
3352.67206	0.1714506298
3351.24235	0.1716360301
3349.81264	0.1717681140
3348.38293	0.1718606949
3346.95322	0.1719520241
3345.52351	0.1720769256
3344.09380	0.1722421944
3342.66409	0.1724261194
3341.23438	0.1725931764
3339.80466	0.1727154553
3338.37495	0.1727880388
3336.94524	0.1728319675
3335.51553	0.1728832275
3334.08582	0.1729760170
3332.65611	0.1731267422
3331.22640	0.1733305603
3329.79669	0.1735679954
3328.36698	0.1738169789
3326.93727	0.1740591228
3325.50756	0.1742837578
3324.07784	0.1744884402
3322.64813	0.1746783853
3321.21842	0.1748634577
3319.78871	0.1750536561
3318.35900	0.1752548218
3316.92929	0.1754706651
3315.49958	0.1757058501
3314.06987	0.1759668887
3312.64016	0.1762597263
3311.21045	0.1765831411
3309.78074	0.1769230962
3308.35102	0.1772526503
3306.92131	0.1775381267
3305.49160	0.1777540147
3304.06189	0.1778980643
3302.63218	0.1779976189
3301.20247	0.1780976206
3299.77276	0.1782357395
3298.34305	0.1784169525
3296.91334	0.1786105037
3295.48363	0.1787645668
3294.05392	0.1788344234
3292.62421	0.1788019836
3291.19449	0.1786799133
3289.76478	0.1785002947
3288.33507	0.1782982200
3286.90536	0.1780954748
3285.47565	0.1778966635
3284.04594	0.1776926666
3282.61623	0.1774719507
3281.18652	0.1772259474
3279.75681	0.1769497097
3278.32710	0.1766365916
3276.89739	0.1762763113
3275.46767	0.1758553535
3274.03796	0.1753638089
3272.60825	0.1747990400
3271.17854	0.1741672754
3269.74883	0.1734819114
3268.31912	0.1727599055
3266.88941	0.1720176041
3265.45970	0.1712670475
3264.02999	0.1705155969
3262.60028	0.1697682738
3261.17057	0.1690291017
3259.74085	0.1682993621
3258.31114	0.1675735116
3256.88143	0.1668422073
3255.45172	0.1661033332
3254.02201	0.1653695554
3252.59230	0.1646660119
3251.16259	0.1640123427
3249.73288	0.1634054184
3248.30317	0.1628187299
3246.87346	0.1622193307
3245.44375	0.1615899503
3244.01403	0.1609368920
3242.58432	0.1602841020
3241.15461	0.1596594006
3239.72490	0.1590838730
3238.29519	0.1585668325
3236.86548	0.1581014693
3235.43577	0.1576653421
3234.00606	0.1572260410
3232.57635	0.1567577720
3231.14664	0.1562555134
3229.71693	0.1557362527
3228.28721	0.1552265882
3226.85750	0.1547458321
3225.42779	0.1542979479
3223.99808	0.1538755149
3222.56837	0.1534678191
3221.13866	0.1530656517
3219.70895	0.1526623219
3218.27924	0.1522524953
3216.84953	0.1518336982
3215.41982	0.1514054686
3213.99011	0.1509693265
3212.56039	0.1505252570
3211.13068	0.1500725597
3209.70097	0.1496136189
3208.27126	0.1491557807
3206.84155	0.1487107426
3205.41184	0.1482880563
3203.98213	0.1478882730
3202.55242	0.1475005895
3201.12271	0.1471064985
3199.69300	0.1466875672
3198.26329	0.1462336779
3196.83357	0.1457486451
3195.40386	0.1452497244
3193.97415	0.1447585672
3192.54444	0.1442901790
3191.11473	0.1438436508
3189.68502	0.1434020102
3188.25531	0.1429435462
3186.82560	0.1424533278
3185.39589	0.1419326663
3183.96618	0.1413930655
3182.53647	0.1408472508
3181.10675	0.1403022856
3179.67704	0.1397601813
3178.24733	0.1392224282
3176.81762	0.1386924982
3175.38791	0.1381719708
3173.95820	0.1376569718
3172.52849	0.1371397376
3171.09878	0.1366133392
3169.66907	0.1360774487
3168.23936	0.1355390996
3166.80965	0.1350078583
3165.37993	0.1344887614
3163.95022	0.1339784563
3162.52051	0.1334680170
3161.09080	0.1329512149
3159.66109	0.1324315518
3158.23138	0.1319217682
3156.80167	0.1314322650
3155.37196	0.1309584677
3153.94225	0.1304787695
3152.51254	0.1299671829
3151.08283	0.1294120848
3149.65311	0.1288243979
3148.22340	0.1282303780
3146.79369	0.1276566535
3145.36398	0.1271204948
3143.93427	0.1266274750
3142.50456	0.1261741519
3141.07485	0.1257485896
3139.64514	0.1253288239
3138.21543	0.1248898357
3136.78572	0.1244155690
3135.35601	0.1239094883
3133.92629	0.1233920977
3132.49658	0.1228881702
3131.06687	0.1224121749
3129.63716	0.1219649464
3128.20745	0.1215420440
3126.77774	0.1211434007
3125.34803	0.1207747310
3123.91832	0.1204391941
3122.48861	0.1201285943
3121.05890	0.1198225841
3119.62919	0.1194981113
3118.19948	0.1191413850
3116.76976	0.1187542304
3115.34005	0.1183511987
3113.91034	0.1179476976
3112.48063	0.1175500005
3111.05092	0.1171537116
3109.62121	0.1167503372
3108.19150	0.1163377911
3106.76179	0.1159251332
3105.33208	0.1155296192
3103.90237	0.1151675358
3102.47266	0.1148459166
3101.04294	0.1145597398
3099.61323	0.1142951846
3098.18352	0.1140365675
3096.75381	0.1137711853
3095.32410	0.1134927422
3093.89439	0.1132019535
3092.46468	0.1129049510
3091.03497	0.1126115024
3089.60526	0.1123289093
3088.17555	0.1120592356
3086.74584	0.1117975339
3085.31612	0.1115344837
3083.88641	0.1112583429
3082.45670	0.1109562442
3081.02699	0.1106155515
3079.59728	0.1102265418
3078.16757	0.1097914428
3076.73786	0.1093292460
3075.30815	0.1088732332
3073.87844	0.1084559411
3072.44873	0.1080908701
3071.01902	0.1077654213
3069.58930	0.1074477732
3068.15959	0.1071059108
3066.72988	0.1067226753
3065.30017	0.1063003987
3063.87046	0.1058545187
3062.44075	0.1054034233
3061.01104	0.1049596816
3059.58133	0.1045282483
3058.15162	0.1041071415
3056.72191	0.1036900654
3055.29220	0.1032689214
3053.86248	0.1028387994
3052.43277	0.1023993418
3051.00306	0.1019554511
3049.57335	0.1015145928
3048.14364	0.1010830700
3046.71393	0.1006616056
3045.28422	0.1002447531
3043.85451	0.0998247191
3042.42480	0.0993965045
3040.99509	0.0989610925
3039.56538	0.0985227451
3038.13566	0.0980816334
3036.70595	0.0976304635
3035.27624	0.0971577391
3033.84653	0.0966573656
3032.41682	0.0961352810
3030.98711	0.0956095681
3029.55740	0.0951021761
3028.12769	0.0946303308
3026.69798	0.0942012221
3025.26827	0.0938118845
3023.83856	0.0934514701
3022.40884	0.0931056589
3020.97913	0.0927620754
3019.54942	0.0924153030
3018.11971	0.0920676589
3016.69000	0.0917224661
3015.26029	0.0913761109
3013.83058	0.0910157934
3012.40087	0.0906278044
3010.97116	0.0902113914
3009.54145	0.0897862688
3008.11174	0.0893870369
3006.68202	0.0890456811
3005.25231	0.0887756348
3003.82260	0.0885672942
3002.39289	0.0883987471
3000.96318	0.0882511362
2999.53347	0.0881167948
2998.10376	0.0879981220
2996.67405	0.0878979936
2995.24434	0.0878133178
2993.81463	0.0877360106
2992.38492	0.0876602381
2990.95520	0.0875892565
2989.52549	0.0875392556
2988.09578	0.0875327289
2986.66607	0.0875889435
2985.23636	0.0877139941
2983.80665	0.0878985673
2982.37694	0.0881240219
2980.94723	0.0883719325
2979.51752	0.0886300877
2978.08781	0.0888911486
2976.65810	0.0891496092
2975.22838	0.0894006193
2973.79867	0.0896437243
2972.36896	0.0898834318
2970.93925	0.0901258811
2969.50954	0.0903692022
2968.07983	0.0905995816
2966.65012	0.0907935202
2965.22041	0.0909269676
2963.79070	0.0909827873
2962.36099	0.0909520835
2960.93128	0.0908316821
2959.50157	0.0906221941
2958.07185	0.0903270990
2956.64214	0.0899549723
2955.21243	0.0895212293
2953.78272	0.0890477821
2952.35301	0.0885635838
2950.92330	0.0881015435
2949.49359	0.0876945406
2948.06388	0.0873670503
2946.63417	0.0871298984
2945.20446	0.0869778171
2943.77475	0.0868940800
2942.34503	0.0868586972
2940.91532	0.0868559778
2939.48561	0.0868783295
2938.05590	0.0869236439
2936.62619	0.0869881287
2935.19648	0.0870601162
2933.76677	0.0871177167
2932.33706	0.0871348977
2930.90735	0.0870903209
2929.47764	0.0869768038
2928.04793	0.0868023932
2926.61821	0.0865840018
2925.18850	0.0863356218
2923.75879	0.0860572457
2922.32908	0.0857330710
2920.89937	0.0853384212
2919.46966	0.0848517269
2918.03995	0.0842644274
2916.61024	0.0835843682
2915.18053	0.0828336328
2913.75082	0.0820425376
2912.32111	0.0812442377
2910.89139	0.0804691166
2909.46168	0.0797407851
2908.03197	0.0790735707
2906.60226	0.0784718543
2905.17255	0.0779317990
2903.74284	0.0774447620
2902.31313	0.0770003945
2900.88342	0.0765895173
2899.45371	0.0762030631
2898.02400	0.0758320540
2896.59429	0.0754674301
2895.16457	0.0751042441
2893.73486	0.0747465044
2892.30515	0.0744078010
2890.87544	0.0741076395
2889.44573	0.0738619044
2888.01602	0.0736768246
2886.58631	0.0735484809
2885.15660	0.0734676272
2883.72689	0.0734243467
2882.29718	0.0734110102
2880.86747	0.0734207258
2879.43775	0.0734452233
2878.00804	0.0734703615
2876.57833	0.0734745562
2875.14862	0.0734282956
2873.71891	0.0732998177
2872.28920	0.0730661750
2870.85949	0.0727235153
2869.42978	0.0722914711
2868.00007	0.0718096718
2866.57036	0.0713250861
2865.14065	0.0708787888
2863.71093	0.0704945475
2862.28122	0.0701752380
2860.85151	0.0699082464
2859.42180	0.0696747825
2857.99209	0.0694579110
2856.56238	0.0692439973
2855.13267	0.0690168068
2853.70296	0.0687520728
2852.27325	0.0684189424
2850.84354	0.0679908544
2849.41383	0.0674591064
2847.98411	0.0668417588
2846.55440	0.0661813095
2845.12469	0.0655318797
2843.69498	0.0649412945
2842.26527	0.0644358397
2840.83556	0.0640149564
2839.40585	0.0636569336
2837.97614	0.0633321851
2836.54643	0.0630174950
2835.11672	0.0627036318
2833.68701	0.0623942390
2832.25729	0.0621008314
2830.82758	0.0618346669
2829.39787	0.0615999550
2827.96816	0.0613903254
2826.53845	0.0611920916
2825.10874	0.0609916225
2823.67903	0.0607850552
2822.24932	0.0605806708
2820.81961	0.0603916422
2819.38990	0.0602255017
2817.96019	0.0600772612
2816.53047	0.0599349551
2815.10076	0.0597896352
2813.67105	0.0596418679
2812.24134	0.0594963506
2810.81163	0.0593529567
2809.38192	0.0592021085
2807.95221	0.0590312034
2806.52250	0.0588382818
2805.09279	0.0586376823
2803.66308	0.0584523119
2802.23337	0.0582972132
2800.80366	0.0581670292
2799.37394	0.0580397882
2797.94423	0.0578924380
2796.51452	0.0577168129
2795.08481	0.0575230867
2793.65510	0.0573295057
2792.22539	0.0571477599
2790.79568	0.0569754802
2789.36597	0.0568014644
2787.93626	0.0566154867
2786.50655	0.0564160012
2785.07684	0.0562111884
2783.64712	0.0560156852
2782.21741	0.0558440872
2780.78770	0.0557044558
2779.35799	0.0555937588
2777.92828	0.0554957092
2776.49857	0.0553881824
2775.06886	0.0552546680
2773.63915	0.0550940372
2772.20944	0.0549208336
2770.77973	0.0547558628
2769.35002	0.0546139963
2767.92030	0.0544976518
2766.49059	0.0543993190
2765.06088	0.0543075241
2763.63117	0.0542108193
2762.20146	0.0541007668
2760.77175	0.0539723933
2759.34204	0.0538255684
2757.91233	0.0536652319
2756.48262	0.0534997135
2755.05291	0.0533364788
2753.62320	0.0531792194
2752.19348	0.0530263446
2750.76377	0.0528723262
2749.33406	0.0527104102
2747.90435	0.0525367223
2746.47464	0.0523538180
2745.04493	0.0521721020
2743.61522	0.0520046987
2742.18551	0.0518602282
2740.75580	0.0517365113
2739.32609	0.0516202897
2737.89638	0.0514941923
2736.46666	0.0513454638
2735.03695	0.0511738062
2733.60724	0.0509913303
2732.17753	0.0508171096
2730.74782	0.0506686978
2729.31811	0.0505529083
2727.88840	0.0504620112
2726.45869	0.0503759570
2725.02898	0.0502720140
2723.59927	0.0501352958
2722.16956	0.0499656275
2720.73984	0.0497752689
2719.31013	0.0495824106
2717.88042	0.0494008027
2716.45071	0.0492361747
2715.02100	0.0490877852
2713.59129	0.0489534363
2712.16158	0.0488310084
2710.73187	0.0487182550
2709.30216	0.0486092083
2707.87245	0.0484949797
2706.44274	0.0483675599
2705.01302	0.0482253060
2703.58331	0.0480750315
2702.15360	0.0479278155
2700.72389	0.0477927290
2699.29418	0.0476712920
2697.86447	0.0475590713
2696.43476	0.0474481508
2695.00505	0.0473308787
2693.57534	0.0472026728
2692.14563	0.0470631681
2690.71592	0.0469177067
2689.28620	0.0467772260
2687.85649	0.0466550328
2686.42678	0.0465596430
2684.99707	0.0464905202
2683.56736	0.0464370809
2682.13765	0.0463837050
2680.70794	0.0463165678
2679.27823	0.0462279916
2677.84852	0.0461174361
2676.41881	0.0459890999
2674.98910	0.0458495803
2673.55938	0.0457057916
2672.12967	0.0455642901
2670.69996	0.0454302840
2669.27025	0.0453082696
2667.84054	0.0452001020
2666.41083	0.0451055206
2664.98112	0.0450216122
2663.55141	0.0449434631
2662.12170	0.0448656417
2660.69199	0.0447834991
2659.26228	0.0446944311
2657.83256	0.0445986688
2656.40285	0.0444986522
2654.97314	0.0443984605
2653.54343	0.0443022475
2652.11372	0.0442133620
2650.68401	0.0441328362
2649.25430	0.0440589674
2647.82459	0.0439884663
2646.39488	0.0439188071
2644.96517	0.0438502766
2643.53546	0.0437855348
2642.10575	0.0437267572
2640.67603	0.0436713360
2639.24632	0.0436119735
2637.81661	0.0435406864
2636.38690	0.0434555635
2634.95719	0.0433624201
2633.52748	0.0432702079
2632.09777	0.0431836508
2630.66806	0.0431002863
2629.23835	0.0430140458
2627.80864	0.0429245122
2626.37893	0.0428391956
2624.94921	0.0427697487
2623.51950	0.0427221619
2622.08979	0.0426908284
2620.66008	0.0426610708
2619.23037	0.0426188931
2617.80066	0.0425592475
2616.37095	0.0424879007
2614.94124	0.0424156003
2613.51153	0.0423507877
2612.08182	0.0422957428
2610.65211	0.0422480628
2609.22239	0.0422036424
2607.79268	0.0421592854
2606.36297	0.0421137623
2604.93326	0.0420687012
2603.50355	0.0420284607
2602.07384	0.0419981778
2600.64413	0.0419798158
2599.21442	0.0419684090
2597.78471	0.0419540405
2596.35500	0.0419278108
2594.92529	0.0418878980
2593.49557	0.0418398120
2592.06586	0.0417909846
2590.63615	0.0417453572
2589.20644	0.0417026132
2587.77673	0.0416625813
2586.34702	0.0416281931
2584.91731	0.0416046903
2583.48760	0.0415946878
2582.05789	0.0415945761
2580.62818	0.0415963717
2579.19847	0.0415931791
2577.76875	0.0415842645
2576.33904	0.0415760018
2574.90933	0.0415759459
2573.47962	0.0415860005
2572.04991	0.0416004732
2570.62020	0.0416089334
2569.19049	0.0416047163
2567.76078	0.0415903591
2566.33107	0.0415762030
2564.90136	0.0415732116
2563.47165	0.0415850878
2562.04193	0.0416073389
2560.61222	0.0416320376
2559.18251	0.0416544043
2557.75280	0.0416745767
2556.32309	0.0416955203
2554.89338	0.0417191721
2553.46367	0.0417451039
2552.03396	0.0417726338
2550.60425	0.0418032408
2549.17454	0.0418398976
2547.74483	0.0418840498
2546.31511	0.0419328846
2544.88540	0.0419801846
2543.45569	0.0420192517
2542.02598	0.0420468561
2540.59627	0.0420652479
2539.16656	0.0420799367
2537.73685	0.0420973338
2536.30714	0.0421219468
2534.87743	0.0421552360
2533.44772	0.0421967693
2532.01801	0.0422456376
2530.58829	0.0423020758
2529.15858	0.0423667394
2527.72887	0.0424394608
2526.29916	0.0425158516
2524.86945	0.0425878279
2523.43974	0.0426459946
2522.01003	0.0426858030
2520.58032	0.0427104793
2519.15061	0.0427296720
2517.72090	0.0427538641
2516.29119	0.0427892879
2514.86147	0.0428366512
2513.43176	0.0428931080
2512.00205	0.0429548882
2510.57234	0.0430184752
2509.14263	0.0430799015
2507.71292	0.0431352779
2506.28321	0.0431822799
2504.85350	0.0432229377
2503.42379	0.0432631150
2501.99408	0.0433099344
2500.56437	0.0433671363
2499.13465	0.0434323624
2497.70494	0.0434980243
2496.27523	0.0435555391
2494.84552	0.0435998403
2493.41581	0.0436322652
2491.98610	0.0436594300
2490.55639	0.0436899439
2489.12668	0.0437305346
2487.69697	0.0437833890
2486.26726	0.0438466109
2484.83755	0.0439150557
2483.40784	0.0439810492
2481.97812	0.0440362506
2480.54841	0.0440741554
2479.11870	0.0440934375
2477.68899	0.0441006869
2476.25928	0.0441082194
2474.82957	0.0441280790
2473.39986	0.0441650450
2471.97015	0.0442151390
2470.54044	0.0442701690
2469.11073	0.0443251804
2467.68102	0.0443823189
2466.25130	0.0444473214
2464.82159	0.0445227735
2463.39188	0.0446050949
2461.96217	0.0446854495
2460.53246	0.0447564386
2459.10275	0.0448162444
2457.67304	0.0448686257
2456.24333	0.0449177958
2454.81362	0.0449634157
2453.38391	0.0450000502
2451.95420	0.0450210385
2450.52448	0.0450258330
2449.09477	0.0450230762
2447.66506	0.0450266674
2446.23535	0.0450475700
2444.80564	0.0450873412
2443.37593	0.0451381765
2441.94622	0.0451885574
2440.51651	0.0452294610
2439.08680	0.0452567823
2437.65709	0.0452710018
2436.22738	0.0452766642
2434.79766	0.0452800542
2433.36795	0.0452868640
2431.93824	0.0452983268
2430.50853	0.0453113429
2429.07882	0.0453226641
2427.64911	0.0453337543
2426.21940	0.0453511961
2424.78969	0.0453807376
2423.35998	0.0454199947
2421.93027	0.0454581603
2420.50056	0.0454825647
2419.07084	0.0454895496
2417.64113	0.0454857834
2416.21142	0.0454838574
2414.78171	0.0454925969
2413.35200	0.0455113947
2411.92229	0.0455311462
2410.49258	0.0455408618
2409.06287	0.0455343649
2407.63316	0.0455138683
2406.20345	0.0454888307
2404.77374	0.0454712957
2403.34402	0.0454697162
2401.91431	0.0454856977
2400.48460	0.0455136113
2399.05489	0.0455441102
2397.62518	0.0455674529
2396.19547	0.0455779471
2394.76576	0.0455747582
2393.33605	0.0455612727
2391.90634	0.0455425307
2390.47663	0.0455228947
2389.04692	0.0455050133
2387.61720	0.0454891175
2386.18749	0.0454742014
2384.75778	0.0454589650
2383.32807	0.0454436764
2381.89836	0.0454295054
2380.46865	0.0454154834
2379.03894	0.0453955941
2377.60923	0.0453575477
2376.17952	0.0452867188
2374.74981	0.0451740511
2373.32010	0.0450213812
2371.89038	0.0448398069
2370.46067	0.0446412116
2369.03096	0.0444342159
2367.60125	0.0442253724
2366.17154	0.0440241024
2364.74183	0.0438409112
2363.31212	0.0436805822
2361.88241	0.0435406864
2360.45270	0.0434188582
2359.02299	0.0433241762
2357.59328	0.0432792753
2356.16356	0.0433121361
2354.73385	0.0434367396
2353.30414	0.0436396785
2351.87443	0.0438831225
2350.44472	0.0441216901
2349.01501	0.0443134829
2347.58530	0.0444244668
2346.15559	0.0444323793
2344.72588	0.0443356447
2343.29617	0.0441646129
2341.86646	0.0439736880
2340.43674	0.0438101888
2339.00703	0.0436930358
2337.57732	0.0436194725
2336.14761	0.0435836390
2334.71790	0.0435825549
2333.28819	0.0436113440
2331.85848	0.0436610878
2330.42877	0.0437220894
2328.99906	0.0437886827
2327.56935	0.0438612141
2326.13964	0.0439417772
2324.70993	0.0440287441
2323.28021	0.0441166759
2321.85050	0.0441980883
2320.42079	0.0442661569
2318.99108	0.0443175845
2317.56137	0.0443527587
2316.13166	0.0443757512
2314.70195	0.0443924963
2313.27224	0.0444079526
2311.84253	0.0444227755
2310.41282	0.0444341600
2308.98311	0.0444390029
2307.55339	0.0444376282
2306.12368	0.0444325805
2304.69397	0.0444255285
2303.26426	0.0444135703
2301.83455	0.0443924107
2300.40484	0.0443605855
2298.97513	0.0443237163
2297.54542	0.0442919284
2296.11571	0.0442744419
2294.68600	0.0442749001
2293.25629	0.0442907512
2291.82657	0.0443164073
2290.39686	0.0443456471
2288.96715	0.0443732291
2287.53744	0.0443926379
2286.10773	0.0443965383
2284.67802	0.0443783030
2283.24831	0.0443361588
2281.81860	0.0442769937
2280.38889	0.0442141369
2278.95918	0.0441615768
2277.52947	0.0441270173
2276.09975	0.0441097990
2274.67004	0.0441043228
2273.24033	0.0441053286
2271.81062	0.0441087931
2270.38091	0.0441107154
2268.95120	0.0441051275
2267.52149	0.0440858454
2266.09178	0.0440516062
2264.66207	0.0440071151
2263.23236	0.0439603962
2261.80265	0.0439183488
2260.37293	0.0438847840
2258.94322	0.0438592695
2257.51351	0.0438401662
2256.08380	0.0438250788
2254.65409	0.0438117608
2253.22438	0.0437995344
2251.79467	0.0437895991
2250.36496	0.0437842458
2248.93525	0.0437845327
2247.50554	0.0437898301
2246.07583	0.0437968448
2244.64611	0.0438006222
2243.21640	0.0437962152
2241.78669	0.0437799245
2240.35698	0.0437508337
2238.92727	0.0437106416
2237.49756	0.0436634645
2236.06785	0.0436150096
2234.63814	0.0435735956
2233.20843	0.0435480401
2231.77872	0.0435448363
2230.34901	0.0435640104
2228.91929	0.0435967483
2227.48958	0.0436295494
2226.05987	0.0436502397
2224.63016	0.0436517857
2223.20045	0.0436340123
2221.77074	0.0436011255
2220.34103	0.0435608029
2218.91132	0.0435214862
2217.48161	0.0434901528
2216.05190	0.0434691533
2214.62219	0.0434556194
2213.19247	0.0434432328
2211.76276	0.0434258394
2210.33305	0.0434000641
2208.90334	0.0433659665
2207.47363	0.0433268920
2206.04392	0.0432894565
2204.61421	0.0432612859
2203.18450	0.0432467014
2201.75479	0.0432433262
2200.32508	0.0432424136
2198.89537	0.0432342328
2197.46565	0.0432145037
2196.03594	0.0431867689
2194.60623	0.0431595780
2193.17652	0.0431398228
2191.74681	0.0431280993
2190.31710	0.0431192107
2188.88739	0.0431059152
2187.45768	0.0430836193
2186.02797	0.0430529490
2184.59826	0.0430174209
2183.16855	0.0429799221
2181.73883	0.0429409444
2180.30912	0.0428999104
2178.87941	0.0428583920
2177.44970	0.0428202525
2176.01999	0.0427885167
2174.59028	0.0427618362
2173.16057	0.0427342728
2171.73086	0.0427002534
2170.30115	0.0426593274
2168.87144	0.0426170677
2167.44173	0.0425812863
2166.01202	0.0425567627
2164.58230	0.0425427146
2163.15259	0.0425350070
2161.72288	0.0425301231
2160.29317	0.0425265282
2158.86346	0.0425232425
2157.43375	0.0425164774
2156.00404	0.0424986631
2154.57433	0.0424622111
2153.14462	0.0424052104
2151.71491	0.0423361771
2150.28520	0.0422715172
2148.85548	0.0422282070
2147.42577	0.0422143415
2145.99606	0.0422245264
2144.56635	0.0422425307
2143.13664	0.0422498621
2141.70693	0.0422353111
2140.27722	0.0421991386
2138.84751	0.0421504155
2137.41780	0.0421008430
2135.98809	0.0420573801
2134.55838	0.0420209058
2133.12866	0.0419876873
2131.69895	0.0419539250
2130.26924	0.0419189148
2128.83953	0.0418868735
2127.40982	0.0418646969
2125.98011	0.0418578237
2124.55040	0.0418656655
2123.12069	0.0418800898
2121.69098	0.0418886393
2120.26127	0.0418811999
2118.83156	0.0418556891
2117.40184	0.0418178365
2115.97213	0.0417776480
2114.54242	0.0417431928
2113.11271	0.0417178310
2111.68300	0.0417008176
2110.25329	0.0416897051
2108.82358	0.0416813008
2107.39387	0.0416729525
2105.96416	0.0416631810
2104.53445	0.0416520946
2103.10474	0.0416402146
2101.67502	0.0416282490
2100.24531	0.0416164845
2098.81560	0.0416055135
2097.38589	0.0415960848
2095.95618	0.0415879935
2094.52647	0.0415796489
2093.09676	0.0415685959
2091.66705	0.0415539816
2090.23734	0.0415370613
2088.80763	0.0415199995
2087.37792	0.0415033102
2085.94820	0.0414857641
2084.51849	0.0414668843
2083.08878	0.0414486006
2081.65907	0.0414333642
2080.22936	0.0414210036
2078.79965	0.0414073355
2077.36994	0.0413872637
2075.94023	0.0413593873
2074.51052	0.0413266458
2073.08081	0.0412934497
2071.65110	0.0412619375
2070.22138	0.0412332155
2068.79167	0.0412093364
2067.36196	0.0411952734
2065.93225	0.0411943644
2064.50254	0.0412051231
2063.07283	0.0412198380
2061.64312	0.0412301123
2060.21341	0.0412318222
2058.78370	0.0412264690
2057.35399	0.0412186980
2055.92428	0.0412118398
2054.49456	0.0412067436
2053.06485	0.0412017629
2051.63514	0.0411945917
2050.20543	0.0411832631
2048.77572	0.0411672704
2047.34601	0.0411478318
2045.91630	0.0411272831
2044.48659	0.0411076769
2043.05688	0.0410904363
2041.62717	0.0410759524
2040.19746	0.0410645977
2038.76774	0.0410562605
2037.33803	0.0410505719
2035.90832	0.0410467014
2034.47861	0.0410435423
2033.04890	0.0410399586
2031.61919	0.0410340391
2030.18948	0.0410237126
2028.75977	0.0410075262
2027.33006	0.0409855619
2025.90035	0.0409598462
2024.47064	0.0409326814
2023.04092	0.0409058891
2021.61121	0.0408810563
2020.18150	0.0408599265
2018.75179	0.0408449955
2017.32208	0.0408374891
2015.89237	0.0408369750
2014.46266	0.0408415534
2013.03295	0.0408494622
2011.60324	0.0408600979
2010.17353	0.0408733226
2008.74382	0.0408883393
2007.31411	0.0409026444
2005.88439	0.0409130827
2004.45468	0.0409176350
2003.02497	0.0409184024
2001.59526	0.0409211032
2000.16555	0.0409318283
1998.73584	0.0409516543
1997.30613	0.0409748964
1995.87642	0.0409922488
1994.44671	0.0409982242
1993.01700	0.0409963466
1991.58729	0.0409979932
1990.15757	0.0410146080
1988.72786	0.0410496332
1987.29815	0.0410960391
1985.86844	0.0411413424
1984.43873	0.0411752649
1983.00902	0.0411958136
1981.57931	0.0412081666
1980.14960	0.0412210040
1978.71989	0.0412407033
1977.29018	0.0412682556
1975.86047	0.0413019322
1974.43075	0.0413382053
1973.00104	0.0413732827
1971.57133	0.0414021835
1970.14162	0.0414216593
1968.71191	0.0414339639
1967.28220	0.0414487123
1965.85249	0.0414771065
1964.42278	0.0415230468
1962.99307	0.0415777378
1961.56336	0.0416250601
1960.13365	0.0416522399
1958.70393	0.0416588187
1957.27422	0.0416573659
1955.84451	0.0416667685
1954.41480	0.0417017899
1952.98509	0.0417659618
1951.55538	0.0418502986
1950.12567	0.0419383608
1948.69596	0.0420138910
1947.26625	0.0420678742
1945.83654	0.0421002991
1944.40683	0.0421200357
1942.97711	0.0421423428
1941.54740	0.0421822220
1940.11769	0.0422459543
1938.68798	0.0423265584
1937.25827	0.0424078070
1935.82856	0.0424752571
1934.39885	0.0425258428
1932.96914	0.0425684974
1931.53943	0.0426150113
1930.10972	0.0426701233
1928.68001	0.0427286737
1927.25029	0.0427820012
1925.82058	0.0428240523
1924.39087	0.0428535938
1922.96116	0.0428729951
1921.53145	0.0428887941
1920.10174	0.0429125093
1918.67203	0.0429560319
1917.24232	0.0430230200
1915.81261	0.0431054011
1914.38290	0.0431877971
1912.95319	0.0432593413
1911.52347	0.0433188267
1910.09376	0.0433739163
1908.66405	0.0434337929
1907.23434	0.0435040295
1905.80463	0.0435830131
1904.37492	0.0436636098
1902.94521	0.0437367782
1901.51550	0.0437975042
1900.08579	0.0438478701
1898.65608	0.0438961834
1897.22637	0.0439518876
1895.79665	0.0440203808
1894.36694	0.0441010594
1892.93723	0.0441886596
1891.50752	0.0442764200
1890.07781	0.0443589240
1888.64810	0.0444343612
1887.21839	0.0445059091
1885.78868	0.0445788167
1884.35897	0.0446565598
1882.92926	0.0447375551
1881.49955	0.0448177941
1880.06983	0.0448944867
1878.64012	0.0449673757
1877.21041	0.0450376049
1875.78070	0.0451052636
1874.35099	0.0451696254
1872.92128	0.0452301241
1871.49157	0.0452871509
1870.06186	0.0453441553
1868.63215	0.0454083532
1867.20244	0.0454888903
1865.77273	0.0455896482
1864.34301	0.0457052439
1862.91330	0.0458242372
1861.48359	0.0459380224
1860.05388	0.0460448749
1858.62417	0.0461488739
1857.19446	0.0462519750
1855.76475	0.0463515297
1854.33504	0.0464437045
1852.90533	0.0465289839
1851.47562	0.0466105342
1850.04591	0.0466891304
1848.61619	0.0467608199
1847.18648	0.0468219146
1845.75677	0.0468763821
1844.32706	0.0469365977
1842.89735	0.0470139533
1841.46764	0.0471116640
1840.03793	0.0472263098
1838.60822	0.0473533385
1837.17851	0.0474880002
1835.74880	0.0476236865
1834.31909	0.0477521010
1832.88938	0.0478654429
1831.45966	0.0479598753
1830.02995	0.0480372123
1828.60024	0.0481082574
1827.17053	0.0481925942
1825.74082	0.0483110510
1824.31111	0.0484722033
1822.88140	0.0486654676
1821.45169	0.0488679707
1820.02198	0.0490579903
1818.59227	0.0492233597
1817.16256	0.0493602864
1815.73284	0.0494703315
1814.30313	0.0495586731
1812.87342	0.0496379510
1811.44371	0.0497250482
1810.01400	0.0498321988
1808.58429	0.0499589182
1807.15458	0.0500935763
1805.72487	0.0502237454
1804.29516	0.0503438339
1802.86545	0.0504572131
1801.43574	0.0505738184
1800.00602	0.0507067479
1798.57631	0.0508621261
1797.14660	0.0510320887
1795.71689	0.0511992909
1794.28718	0.0513494574
1792.85747	0.0514865555
1791.42776	0.0516310483
1789.99805	0.0518003777
1788.56834	0.0519921221
1787.13863	0.0521901138
1785.70892	0.0523801297
1784.27920	0.0525578745
1782.84949	0.0527267456
1781.41978	0.0528943688
1779.99007	0.0530692227
1778.56036	0.0532562621
1777.13065	0.0534523129
1775.70094	0.0536458120
1774.27123	0.0538270622
1772.84152	0.0540028512
1771.41181	0.0541985631
1769.98210	0.0544340909
1768.55238	0.0547032729
1767.12267	0.0549839363
1765.69296	0.0552608706
1764.26325	0.0555333048
1762.83354	0.0558080859
1761.40383	0.0560933203
1759.97412	0.0563974306
1758.54441	0.0567286275
1757.11470	0.0570879430
1755.68499	0.0574640445
1754.25528	0.0578421019
1752.82556	0.0582200997
1751.39585	0.0586186908
1749.96614	0.0590685681
1748.53643	0.0595815293
1747.10672	0.0601397790
1745.67701	0.0607146733
1744.24730	0.0612848476
1742.81759	0.0618350245
1741.38788	0.0623491742
1739.95817	0.0628183708
1738.52846	0.0632525533
1737.09874	0.0636820495
1735.66903	0.0641449466
1734.23932	0.0646692961
1732.80961	0.0652601495
1731.37990	0.0659024790
1729.95019	0.0665775910
1728.52048	0.0672772452
1727.09077	0.0680037215
1725.66106	0.0687627122
1724.23135	0.0695558786
1722.80164	0.0703801736
1721.37192	0.0712403730
1719.94221	0.0721676573
1718.51250	0.0732189789
1717.08279	0.0744230971
1715.65308	0.0757143795
1714.22337	0.0769742727
1712.79366	0.0781455114
1711.36395	0.0792586431
1709.93424	0.0803774968
1708.50453	0.0815536156
1707.07482	0.0828141794
1705.64510	0.0841807127
1704.21539	0.0856988505
1702.78568	0.0874555632
1701.35597	0.0895587057
1699.92626	0.0920608789
1698.49655	0.0948556736
1697.06684	0.0976762921
1695.63713	0.1002673209
1694.20742	0.1025326997
1692.77771	0.1045138538
1691.34800	0.1063052937
1689.91828	0.1080153063
1688.48857	0.1097751781
1687.05886	0.1117494479
1685.62915	0.1140778735
1684.19944	0.1167111844
1682.76973	0.1193460822
1681.34002	0.1216911748
1679.91031	0.1237176731
1678.48060	0.1255843937
1677.05089	0.1274627596
1675.62118	0.1294486970
1674.19147	0.1315623671
1672.76175	0.1337928176
1671.33204	0.1361285448
1669.90233	0.1385298222
1668.47262	0.1409087926
1667.04291	0.1431840807
1665.61320	0.1453492641
1664.18349	0.1474516541
1662.75378	0.1494961828
1661.32407	0.1513863802
1659.89436	0.1529757380
1658.46465	0.1541541815
1657.03493	0.1548508704
1655.60522	0.1549716443
1654.17551	0.1544041634
1652.74580	0.1531841755
1651.31609	0.1515962631
1649.88638	0.1499216259
1648.45667	0.1482120156
1647.02696	0.1464243531
1645.59725	0.1446238309
1644.16754	0.1429712474
1642.73783	0.1415531188
1641.30811	0.1402919143
1639.87840	0.1389944851
1638.44869	0.1374476552
1637.01898	0.1355438083
1635.58927	0.1334043890
1634.15956	0.1313076615
1632.72985	0.1294078976
1631.30014	0.1276172400
1629.87043	0.1257242411
1628.44072	0.1235163063
1627.01101	0.1208513081
1625.58129	0.1177274659
1624.15158	0.1143143475
1622.72187	0.1108496115
1621.29216	0.1074642166
1619.86245	0.1041173413
1618.43274	0.1007058620
1617.00303	0.0972512215
1615.57332	0.0939721987
1614.14361	0.0911239237
1612.71390	0.0887783617
1611.28419	0.0868103579
1609.85447	0.0850483477
1608.42476	0.0834045112
1606.99505	0.0818976685
1605.56534	0.0805864036
1604.13563	0.0794944540
1602.70592	0.0785977542
1601.27621	0.0778615251
1599.84650	0.0772661567
1598.41679	0.0767999738
1596.98708	0.0764445961
1595.55737	0.0761794299
1594.12765	0.0759948939
1592.69794	0.0758936107
1591.26823	0.0758799240
1589.83852	0.0759543180
1588.40881	0.0761178881
1586.97910	0.0763748437
1585.54939	0.0767198429
1584.11968	0.0771296024
1582.68997	0.0775728077
1581.26026	0.0780351087
1579.83055	0.0785336047
1578.40083	0.0791063085
1576.97112	0.0797792301
1575.54141	0.0805384144
1574.11170	0.0813443437
1572.68199	0.0821777955
1571.25228	0.0830564126
1569.82257	0.0840016380
1568.39286	0.0849987566
1566.96315	0.0859946683
1565.53344	0.0869449228
1564.10373	0.0878611058
1562.67401	0.0888258442
1561.24430	0.0899805799
1559.81459	0.0914525390
1558.38488	0.0931724757
1556.95517	0.0948176757
1555.52546	0.0961310193
1554.09575	0.0971186012
1552.66604	0.0978846028
1551.23633	0.0984816328
1549.80662	0.0988955274
1548.37691	0.0990876108
1546.94719	0.0990296006
1545.51748	0.0986969322
1544.08777	0.0980349481
1542.65806	0.0969707146
1541.22835	0.0955481827
1539.79864	0.0940381587
1538.36893	0.0927243531
1536.93922	0.0916385800
1535.50951	0.0906381086
1534.07980	0.0895929411
1532.65009	0.0884657949
1531.22037	0.0872936845
1529.79066	0.0861212537
1528.36095	0.0849534869
1526.93124	0.0837596282
1525.50153	0.0825112537
1524.07182	0.0812143087
1522.64211	0.0799139738
1521.21240	0.0786688328
1519.78269	0.0775105432
1518.35298	0.0764225870
1516.92327	0.0753587484
1515.49356	0.0742789358
1514.06384	0.0731615946
1512.63413	0.0719796345
1511.20442	0.0706573278
1509.77471	0.0690609589
1508.34500	0.0671110451
1506.91529	0.0650154576
1505.48558	0.0632381514
1504.05587	0.0620311610
1502.62616	0.0612576306
1501.19645	0.0606543645
1499.76674	0.0600332953
1498.33702	0.0593309365
1496.90731	0.0585957617
1495.47760	0.0579200946
1494.04789	0.0573512465
1492.61818	0.0568718947
1491.18847	0.0564468056
1489.75876	0.0560702011
1488.32905	0.0557742640
1486.89934	0.0555948466
1485.46963	0.0555347726
1484.03992	0.0555662215
1482.61020	0.0556579307
1481.18049	0.0557933077
1479.75078	0.0559725128
1478.32107	0.0562075637
1476.89136	0.0565191247
1475.46165	0.0569325350
1474.03194	0.0574558042
1472.60223	0.0580452010
1471.17252	0.0586080849
1469.74281	0.0590641797
1468.31310	0.0593908280
1466.88338	0.0596152619
1465.45367	0.0597873181
1464.02396	0.0599522777
1462.59425	0.0601301454
1461.16454	0.0603141859
1459.73483	0.0604845844
1458.30512	0.0606218912
1456.87541	0.0607135445
1455.44570	0.0607546866
1454.01599	0.0607442968
1452.58628	0.0606782958
1451.15656	0.0605471916
1449.72685	0.0603436604
1448.29714	0.0600755662
1446.86743	0.0597732663
1445.43772	0.0594771132
1444.00801	0.0592107996
1442.57830	0.0589665584
1441.14859	0.0587133579
1439.71888	0.0584159158
1438.28917	0.0580585748
1436.85946	0.0576654635
1435.42974	0.0572968647
1434.00003	0.0570137016
1432.57032	0.0568448082
1431.14061	0.0567890741
1429.71090	0.0568337701
1428.28119	0.0569639988
1426.85148	0.0571634397
1425.42177	0.0574149713
1423.99206	0.0577044562
1422.56235	0.0580246970
1421.13264	0.0583762638
1419.70292	0.0587622263
1418.27321	0.0591780171
1416.84350	0.0596074201
1415.41379	0.0600312762
1413.98408	0.0604385845
1412.55437	0.0608284995
1411.12466	0.0612025820
1409.69495	0.0615574159
1408.26524	0.0618825741
1406.83553	0.0621642694
1405.40582	0.0623906814
1403.97610	0.0625532269
1402.54639	0.0626459122
1401.11668	0.0626655892
1399.68697	0.0626135617
1398.25726	0.0624973252
1396.82755	0.0623311549
1395.39784	0.0621332675
1393.96813	0.0619160645
1392.53842	0.0616759993
1391.10871	0.0613935739
1389.67900	0.0610436387
1388.24928	0.0606136471
1386.81957	0.0601198301
1385.38986	0.0596053414
1383.96015	0.0591153130
1382.53044	0.0586707778
1381.10073	0.0582655668
1379.67102	0.0578826480
1378.24131	0.0575122721
1376.81160	0.0571616702
1375.38189	0.0568529814
1373.95218	0.0566109754
1372.52246	0.0564458929
1371.09275	0.0563447624
1369.66304	0.0562766865
1368.23333	0.0562098622
1366.80362	0.0561263114
1365.37391	0.0560289398
1363.94420	0.0559384450
1362.51449	0.0558810346
1361.08478	0.0558732897
1359.65507	0.0559152737
1358.22536	0.0559949540
1356.79565	0.0560963564
1355.36593	0.0562043525
1353.93622	0.0563056543
1352.50651	0.0563913323
1351.07680	0.0564589240
1349.64709	0.0565122552
1348.21738	0.0565568656
1346.78767	0.0565961711
1345.35796	0.0566311181
1343.92825	0.0566623509
1342.49854	0.0566939116
1341.06883	0.0567354411
1339.63911	0.0568000190
1338.20940	0.0568967685
1336.77969	0.0570232049
1335.34998	0.0571664535
1333.92027	0.0573123135
1332.49056	0.0574551225
1331.06085	0.0576005802
1329.63114	0.0577617548
1328.20143	0.0579498224
1326.77172	0.0581685975
1325.34201	0.0584136657
1323.91229	0.0586753711
1322.48258	0.0589421280
1321.05287	0.0592030548
1319.62316	0.0594499223
1318.19345	0.0596782193
1316.76374	0.0598856285
1315.33403	0.0600703619
1313.90432	0.0602310337
1312.47461	0.0603710264
1311.04490	0.0605016910
1309.61519	0.0606392734
1308.18547	0.0607957467
1306.75576	0.0609713681
1305.32605	0.0611549579
1303.89634	0.0613315590
1302.46663	0.0614909939
1301.03692	0.0616308004
1299.60721	0.0617536083
1298.17750	0.0618632585
1296.74779	0.0619626381
1295.31808	0.0620536171
1293.88837	0.0621370897
1292.45865	0.0622131117
1291.02894	0.0622833483
1289.59923	0.0623515323
1288.16952	0.0624223016
1286.73981	0.0624974445
1285.31010	0.0625744238
1283.88039	0.0626487583
1282.45068	0.0627205297
1281.02097	0.0627970397
1279.59126	0.0628891215
1278.16155	0.0630033091
1276.73183	0.0631373450
1275.30212	0.0632831603
1273.87241	0.0634372607
1272.44270	0.0636066124
1271.01299	0.0638075992
1269.58328	0.0640560538
1268.15357	0.0643590391
1266.72386	0.0647122264
1265.29415	0.0651069283
1263.86444	0.0655375719
1262.43473	0.0660049841
1261.00501	0.0665107295
1259.57530	0.0670490563
1258.14559	0.0676039904
1256.71588	0.0681526065
1255.28617	0.0686720163
1253.85646	0.0691422075
1252.42675	0.0695438460
1250.99704	0.0698575005
1249.56733	0.0700666606
1248.13762	0.0701636449
1246.70791	0.0701527819
1245.27819	0.0700473189
1243.84848	0.0698632747
1242.41877	0.0696158856
1240.98906	0.0693212971
1239.55935	0.0689967200
1238.12964	0.0686585233
1236.69993	0.0683161989
1235.27022	0.0679702386
1233.84051	0.0676153302
1232.41080	0.0672475323
1230.98109	0.0668674856
1229.55137	0.0664794445
1228.12166	0.0660872012
1226.69195	0.0656926259
1225.26224	0.0652957335
1223.83253	0.0648972541
1222.40282	0.0644979030
1220.97311	0.0640991032
1219.54340	0.0637027025
1218.11369	0.0633116737
1216.68398	0.0629299656
1215.25427	0.0625622272
1213.82455	0.0622144863
1212.39484	0.0618936494
1210.96513	0.0616064556
1209.53542	0.0613560975
1208.10571	0.0611409806
1206.67600	0.0609575771
1205.24629	0.0608064644
1203.81658	0.0606968142
1202.38687	0.0606446303
1200.95716	0.0606656745
1199.52745	0.0607671030
1198.09774	0.0609459281
1196.66802	0.0611933433
1195.23831	0.0615014955
1193.80860	0.0618659779
1192.37889	0.0622839145
1190.94918	0.0627476573
1189.51947	0.0632439330
1188.08976	0.0637577772
1186.66005	0.0642787665
1185.23034	0.0648056492
1183.80063	0.0653460398
1182.37092	0.0659129024
1180.94120	0.0665199310
1179.51149	0.0671776980
1178.08178	0.0678892732
1176.65207	0.0686472431
1175.22236	0.0694349781
1173.79265	0.0702321082
1172.36294	0.0710233897
1170.93323	0.0718044490
1169.50352	0.0725803077
1168.07381	0.0733593926
1166.64410	0.0741463006
1165.21438	0.0749407783
1163.78467	0.0757406354
1162.35496	0.0765456706
1160.92525	0.0773594975
1159.49554	0.0781871006
1158.06583	0.0790316164
1156.63612	0.0798919126
1155.20641	0.0807619244
1153.77670	0.0816323310
1152.34699	0.0824930072
1150.91728	0.0833377987
1149.48756	0.0841687992
1148.05785	0.0849979073
1146.62814	0.0858452246
1145.19843	0.0867339224
1143.76872	0.0876828209
1142.33901	0.0887018666
1140.90930	0.0897909179
1139.47959	0.0909434333
1138.04988	0.0921527222
1136.62017	0.0934184045
1135.19046	0.0947461948
1133.76074	0.0961434916
1132.33103	0.0976108834
1130.90132	0.0991367549
1129.47161	0.1006984562
1128.04190	0.1022693962
1126.61219	0.1038290784
1125.18248	0.1053685769
1123.75277	0.1068898439
1122.32306	0.1083984524
1120.89335	0.1098941192
1119.46364	0.1113642082
1118.03392	0.1127861887
1116.60421	0.1141387373
1115.17450	0.1154147014
1113.74479	0.1166271046
1112.31508	0.1178029701
1110.88537	0.1189672574
1109.45566	0.1201263741
1108.02595	0.1212617308
1106.59624	0.1223358288
1105.16653	0.1233069524
1103.73682	0.1241442487
1102.30710	0.1248378977
1100.87739	0.1254000962
1099.44768	0.1258586943
1098.01797	0.1262455285
1096.58826	0.1265838444
1095.15855	0.1268801987
1093.72884	0.1271264255
1092.29913	0.1273076385
1090.86942	0.1274119765
1089.43971	0.1274333894
1088.01000	0.1273673028
1086.58028	0.1272038221
1085.15057	0.1269270480
1083.72086	0.1265206933
1082.29115	0.1259764433
1080.86144	0.1252986044
1079.43173	0.1245021075
1078.00202	0.1236034185
1076.57231	0.1226142645
1075.14260	0.1215401292
1073.71289	0.1203844696
1072.28318	0.1191529334
1070.85346	0.1178535298
1069.42375	0.1164936423
1067.99404	0.1150776744
1066.56433	0.1136068255
1065.13462	0.1120812148
1063.70491	0.1104987189
1062.27520	0.1088538393
1060.84549	0.1071367487
1059.41578	0.1053370386
1057.98607	0.1034505665
1056.55636	0.1014837921
1055.12664	0.0994542688
1053.69693	0.0973868296
1052.26722	0.0953072309
1050.83751	0.0932390168
1049.40780	0.0912024826
1047.97809	0.0892169923
1046.54838	0.0873030201
1045.11867	0.0854808614
1043.68896	0.0837657824
1042.25925	0.0821626559
1040.82954	0.0806645676
1039.39983	0.0792562515
1037.97011	0.0779210180
1036.54040	0.0766465515
1035.11069	0.0754287168
1033.68098	0.0742697194
1032.25127	0.0731750727
1030.82156	0.0721480697
1029.39185	0.0711869746
1027.96214	0.0702866092
1026.53243	0.0694430545
1025.10272	0.0686576739
1023.67301	0.0679387599
1022.24329	0.0672997907
1020.81358	0.0667576790
1019.38387	0.0663308948
1017.95416	0.0660370216
1016.52445	0.0658867806
1015.09474	0.0658803657
1013.66503	0.0660078153
1012.23532	0.0662561432
1010.80561	0.0666175187
1009.37590	0.0670911968
1007.94619	0.0676779151
1006.51647	0.0683728531
1005.08676	0.0691643357
1003.65705	0.0700379759
1002.22734	0.0709817782
1000.79763	0.0719836354
999.36792	0.0730215237
997.93821	0.0740551725
996.50850	0.0750278756
995.07879	0.0758814067
993.64908	0.0765731484
992.21937	0.0770847127
990.78965	0.0774169788
989.35994	0.0775762126
987.93023	0.0775640756
986.50052	0.0773779377
985.07081	0.0770181641
983.64110	0.0764947310
982.21139	0.0758256093
980.78168	0.0750312582
979.35197	0.0741305798
977.92226	0.0731420517
976.49255	0.0720873699
975.06283	0.0709911659
973.63312	0.0698748603
972.20341	0.0687514916
970.77370	0.0676255524
969.34399	0.0664996877
967.91428	0.0653819442
966.48457	0.0642888844
965.05486	0.0632409081
963.62515	0.0622557700
962.19544	0.0613451265
960.76573	0.0605150238
959.33601	0.0597700886
957.90630	0.0591173582
956.47659	0.0585680641
955.04688	0.0581338555
953.61717	0.0578181185
952.18746	0.0576057509
950.75775	0.0574617721
949.32804	0.0573424138
947.89833	0.0572158843
946.46862	0.0570788532
945.03891	0.0569551736
943.60919	0.0568756424
942.17948	0.0568550453
940.74977	0.0568807758
939.32006	0.0569210574
937.89035	0.0569423661
936.46064	0.0569236837
935.03093	0.0568583198
933.60122	0.0567465052
932.17151	0.0565902144
930.74180	0.0563930981
929.31209	0.0561666414
927.88237	0.0559317321
926.45266	0.0557129607
925.02295	0.0555281863
923.59324	0.0553801544
922.16353	0.0552550182
920.73382	0.0551294498
919.30411	0.0549815260
917.87440	0.0547973551
916.44469	0.0545748994
915.01498	0.0543216057
913.58527	0.0540515408
912.15555	0.0537838452
910.72584	0.0535415560
909.29613	0.0533494763
907.86642	0.0532281399
906.43671	0.0531847477
905.00700	0.0532091819
903.57729	0.0532792360
902.14758	0.0533764623
900.71787	0.0534999482
899.28816	0.0536659360
897.85845	0.0538935848
896.42873	0.0541863330
894.99902	0.0545255318
893.56931	0.0548813827
892.13960	0.0552306511
890.70989	0.0555687509
889.28018	0.0559073836
887.85047	0.0562632494
886.42076	0.0566463359
884.99105	0.0570562370
883.56134	0.0574840792
882.13163	0.0579175800
880.70192	0.0583436340
879.27220	0.0587485060
877.84249	0.0591174476
876.41278	0.0594367124
874.98307	0.0596976429
873.55336	0.0599008687
872.12365	0.0600563921
870.69394	0.0601793528
869.26423	0.0602825098
867.83452	0.0603706092
866.40481	0.0604371578
864.97510	0.0604666136
863.54538	0.0604403093
862.11567	0.0603432134
860.68596	0.0601706989
859.25625	0.0599286258
857.82654	0.0596313551
856.39683	0.0592955947
854.96712	0.0589353666
853.53741	0.0585578121
852.10770	0.0581635088
850.67799	0.0577484518
849.24828	0.0573106594
847.81856	0.0568556637
846.38885	0.0563986711
844.95914	0.0559587032
843.52943	0.0555497184
842.09972	0.0551743880
840.67001	0.0548257269
839.24030	0.0544931293
837.81059	0.0541699119
836.38088	0.0538536124
834.95117	0.0535429902
833.52146	0.0532341413
832.09174	0.0529196635
830.66203	0.0525913276
829.23232	0.0522440039
827.80261	0.0518788397
826.37290	0.0515031107
824.94319	0.0511286967
823.51348	0.0507704951
822.08377	0.0504450612
820.65406	0.0501662679
819.22435	0.0499398671
817.79464	0.0497585200
816.36492	0.0496056229
814.93521	0.0494678095
813.50550	0.0493471473
812.07579	0.0492590815
810.64608	0.0492167510
809.21637	0.0492128097
807.78666	0.0492161438
806.35695	0.0491902232
804.92724	0.0491172038
803.49753	0.0490083471
802.06782	0.0488935225
800.63810	0.0487978123
799.20839	0.0487262495
797.77868	0.0486666262
796.34897	0.0486069806
794.91926	0.0485523529
793.48955	0.0485284999
792.05984	0.0485680141
790.63013	0.0486888625
789.20042	0.0488780513
787.77071	0.0490921326
786.34100	0.0492726527
784.91128	0.0493692495
783.48157	0.0493613295
782.05186	0.0492670573
780.62215	0.0491363630
779.19244	0.0490267500
777.76273	0.0489731990
776.33302	0.0489698648
774.90331	0.0489786156
773.47360	0.0489596091
772.04389	0.0489051081
770.61418	0.0488474034
769.18446	0.0488346294
767.75475	0.0488928556
766.32504	0.0490046963
764.89533	0.0491207093
763.46562	0.0491928048
762.03591	0.0492038801
760.60620	0.0491705686
759.17649	0.0491244495
757.74678	0.0490878113
756.31707	0.0490634367
754.88736	0.0490405150
753.45764	0.0490074493
752.02793	0.0489611141
750.59822	0.0489081219
749.16851	0.0488626994
747.73880	0.0488435514
746.30909	0.0488699675
744.87938	0.0489539281
743.44967	0.0490911752
742.01996	0.0492569059
740.59025	0.0494133346
739.16054	0.0495252497
737.73082	0.0495772734
736.30111	0.0495771579
734.87140	0.0495470390
733.44169	0.0495091788
732.01198	0.0494798198
730.58227	0.0494721010
729.15256	0.0495000668
727.72285	0.0495762303
726.29314	0.0497021191
724.86343	0.0498646572
723.43372	0.0500412881
722.00401	0.0502130203
720.57429	0.0503725819
719.14458	0.0505231880
717.71487	0.0506704748
716.28516	0.0508184172
714.85545	0.0509700812
713.42574	0.0511291660
711.99603	0.0512993187
710.56632	0.0514811948
709.13661	0.0516716912
707.70690	0.0518646911
706.27719	0.0520502217
704.84747	0.0522131436
703.41776	0.0523343123
701.98805	0.0523968078
700.55834	0.0523919016
699.12863	0.0523196235
697.69892	0.0521858223
696.26921	0.0520021319
694.83950	0.0517900549
693.40979	0.0515822470
691.98008	0.0514160357
690.55037	0.0513193905
689.12065	0.0513019972
687.69094	0.0513550788
686.26123	0.0514561012
684.83152	0.0515735596
683.40181	0.0516710505
681.97210	0.0517154559
680.54239	0.0516900904
679.11268	0.0516024493
677.68297	0.0514806993
676.25326	0.0513596237
674.82355	0.0512660779
673.39383	0.0512142628
671.96412	0.0512080863
670.53441	0.0512424260
669.10470	0.0512995794
667.67499	0.0513499230
666.24528	0.0513659157
664.81557	0.0513350032
663.38586	0.0512533486
661.95615	0.0511215925
660.52644	0.0509527326
659.09673	0.0507832952
657.66701	0.0506632291
656.23730	0.0506253280
654.80759	0.0506593622
653.37788	0.0507184155
651.94817	0.0507507101
650.51846	0.0507294983
649.08875	0.0506640449
647.65904	0.0505861491
646.22933	0.0505262427
644.79962	0.0504934713
643.36991	0.0504699461
641.94019	0.0504218601
640.51048	0.0503203794
639.08077	0.0501601361
637.65106	0.0499601103
636.22135	0.0497494899
634.79164	0.0495443717
633.36193	0.0493339524
631.93222	0.0490827113
630.50251	0.0487460867
629.07280	0.0482927114
627.64309	0.0477236137
626.21337	0.0470781103
624.78366	0.0464195088
623.35395	0.0458007902
621.92424	0.0452410690
620.49453	0.0447402820
619.06482	0.0443216823
617.63511	0.0440442711
616.20540	0.0439566448
614.77569	0.0440379977
613.34598	0.0441857651
611.91627	0.0442691669
610.48655	0.0442067124
609.05684	0.0440133028
607.62713	0.0437814109
606.19742	0.0436172970
604.76771	0.0435836390
603.33800	0.0436846763
601.90829	0.0438829809
600.47858	0.0441247821
599.04887	0.0443563983
