3997.47168	0.0025709528
3996.04197	0.0026208216
3994.61226	0.0026679875
3993.18255	0.0027108083
3991.75284	0.0027486577
3990.32312	0.0027805706
3988.89341	0.0028047739
3987.46370	0.0028189472
3986.03399	0.0028224126
3984.60428	0.0028163679
3983.17457	0.0028022728
3981.74486	0.0027814824
3980.31515	0.0027545453
3978.88544	0.0027228948
3977.45573	0.0026890067
3976.02602	0.0026554598
3974.59630	0.0026238686
3973.16659	0.0025974100
3971.73688	0.0025820979
3970.30717	0.0025866551
3968.87746	0.0026170716
3967.44775	0.0026704357
3966.01804	0.0027345389
3964.58833	0.0027940921
3963.15862	0.0028382801
3961.72891	0.0028653007
3960.29920	0.0028796324
3958.86948	0.0028871372
3957.43977	0.0028909419
3956.01006	0.0028916195
3954.58035	0.0028889093
3953.15064	0.0028834110
3951.72093	0.0028792156
3950.29122	0.0028816911
3948.86151	0.0028934437
3947.43180	0.0029113726
3946.00209	0.0029268004
3944.57238	0.0029328465
3943.14266	0.0029311005
3941.71295	0.0029328205
3940.28324	0.0029506991
3938.85353	0.0029897944
3937.42382	0.0030436215
3935.99411	0.0030993586
3934.56440	0.0031452987
3933.13469	0.0031757022
3931.70498	0.0031924171
3930.27527	0.0032006577
3928.84556	0.0032050125
3927.41585	0.0032072030
3925.98613	0.0032074377
3924.55642	0.0032072812
3923.12671	0.0032104889
3921.69700	0.0032191731
3920.26729	0.0032305955
3918.83758	0.0032387062
3917.40787	0.0032387846
3915.97816	0.0032321343
3914.54845	0.0032205030
3913.11874	0.0032011010
3911.68903	0.0031641508
3910.25931	0.0031016006
3908.82960	0.0030173978
3907.39989	0.0029320386
3905.97018	0.0028798671
3904.54047	0.0028956064
3903.11076	0.0029932871
3901.68105	0.0031485320
3900.25134	0.0033062059
3898.82163	0.0034138148
3897.39192	0.0034474204
3895.96221	0.0034135799
3894.53249	0.0033400899
3893.10278	0.0032659865
3891.67307	0.0032292656
3890.24336	0.0032492687
3888.81365	0.0033185959
3887.38394	0.0034106057
3885.95423	0.0034962939
3884.52452	0.0035558734
3883.09481	0.0035836955
3881.66510	0.0035866972
3880.23539	0.0035763353
3878.80567	0.0035599186
3877.37596	0.0035355950
3875.94625	0.0034971552
3874.51654	0.0034436369
3873.08683	0.0033865774
3871.65712	0.0033492984
3870.22741	0.0033517506
3868.79770	0.0033952389
3867.36799	0.0034624236
3865.93828	0.0035335594
3864.50857	0.0035979205
3863.07885	0.0036519535
3861.64914	0.0036913732
3860.21943	0.0037080820
3858.78972	0.0036947411
3857.36001	0.0036527107
3855.93030	0.0036030102
3854.50059	0.0035901424
3853.07088	0.0036545640
3851.64117	0.0037831750
3850.21146	0.0039200257
3848.78175	0.0040253568
3847.35203	0.0040926654
3845.92232	0.0041313414
3844.49261	0.0041536074
3843.06290	0.0041708043
3841.63319	0.0041952156
3840.20348	0.0042368285
3838.77377	0.0042943135
3837.34406	0.0043489300
3835.91435	0.0043771951
3834.48464	0.0043725148
3833.05493	0.0043525905
3831.62521	0.0043444592
3830.19550	0.0043645659
3828.76579	0.0044094631
3827.33608	0.0044610607
3825.90637	0.0045007369
3824.47666	0.0045206416
3823.04695	0.0045269718
3821.61724	0.0045364145
3820.18753	0.0045645614
3818.75782	0.0046138484
3817.32811	0.0046708081
3815.89839	0.0047155013
3814.46868	0.0047354423
3813.03897	0.0047304179
3811.60926	0.0047074938
3810.17955	0.0046772971
3808.74984	0.0046509225
3807.32013	0.0046415292
3805.89042	0.0046595046
3804.46071	0.0047082007
3803.03100	0.0047807968
3801.60129	0.0048657088
3800.17157	0.0049529937
3798.74186	0.0050391704
3797.31215	0.0051244996
3795.88244	0.0052087451
3794.45273	0.0052905176
3793.02302	0.0053676404
3791.59331	0.0054385648
3790.16360	0.0055035236
3788.73389	0.0055639031
3787.30418	0.0056227180
3785.87447	0.0056817769
3784.44475	0.0057401094
3783.01504	0.0057933866
3781.58533	0.0058382223
3780.15562	0.0058749546
3778.72591	0.0059080953
3777.29620	0.0059441775
3775.86649	0.0059892382
3774.43678	0.0060472446
3773.00707	0.0061193826
3771.57736	0.0061990423
3770.14765	0.0062700766
3768.71794	0.0063154078
3767.28822	0.0063325590
3765.85851	0.0063382327
3764.42880	0.0063542821
3762.99909	0.0063903751
3761.56938	0.0064385827
3760.13967	0.0064778617
3758.70996	0.0064860596
3757.28025	0.0064503527
3755.85054	0.0063731689
3754.42083	0.0062723090
3752.99112	0.0061794543
3751.56140	0.0061307503
3750.13169	0.0061486037
3748.70198	0.0062290826
3747.27227	0.0063600871
3745.84256	0.0065389290
3744.41285	0.0067608040
3742.98314	0.0070000230
3741.55343	0.0072181853
3740.12372	0.0073914835
3738.69401	0.0075207315
3737.26430	0.0076230937
3735.83458	0.0077212374
3734.40487	0.0078319227
3732.97516	0.0079597738
3731.54545	0.0080969706
3730.11574	0.0082301488
3728.68603	0.0083479574
3727.25632	0.0084465817
3725.82661	0.0085348794
3724.39690	0.0086290846
3722.96719	0.0087395525
3721.53748	0.0088609327
3720.10776	0.0089743938
3718.67805	0.0090633538
3717.24834	0.0091230413
3715.81863	0.0091640707
3714.38892	0.0092153903
3712.95921	0.0093218815
3711.52950	0.0095197018
3710.09979	0.0097971670
3708.67008	0.0100946538
3707.24037	0.0103579583
3705.81066	0.0105768861
3704.38094	0.0107748285
3702.95123	0.0109806126
3701.52152	0.0112067079
3700.09181	0.0114436317
3698.66210	0.0116708186
3697.23239	0.0118723456
3695.80268	0.0120475907
3694.37297	0.0122171026
3692.94326	0.0124230655
3691.51355	0.0127157997
3690.08384	0.0131117813
3688.65412	0.0135581437
3687.22441	0.0139649464
3685.79470	0.0142799085
3684.36499	0.0145082371
3682.93528	0.0146793816
3681.50557	0.0148226563
3680.07586	0.0149691664
3678.64615	0.0151622314
3677.21644	0.0154525535
3675.78673	0.0158684384
3674.35702	0.0163942240
3672.92730	0.0169896875
3671.49759	0.0176227912
3670.06788	0.0182673223
3668.63817	0.0188844763
3667.20846	0.0194370467
3665.77875	0.0199166536
3664.34904	0.0203477424
3662.91933	0.0207650308
3661.48962	0.0211936198
3660.05991	0.0216404535
3658.63020	0.0220977142
3657.20048	0.0225460790
3655.77077	0.0229646955
3654.34106	0.0233495124
3652.91135	0.0237355195
3651.48164	0.0241994280
3650.05193	0.0248139482
3648.62222	0.0255588535
3647.19251	0.0262993164
3645.76280	0.0269135125
3644.33309	0.0273888521
3642.90338	0.0277828556
3641.47366	0.0281540994
3640.04395	0.0285317693
3638.61424	0.0289143603
3637.18453	0.0292813387
3635.75482	0.0296107139
3634.32511	0.0299015716
3632.89540	0.0301919281
3631.46569	0.0305564329
3630.03598	0.0310591627
3628.60627	0.0316731147
3627.17656	0.0322724879
3625.74684	0.0327475108
3624.31713	0.0330903381
3622.88742	0.0333653092
3621.45771	0.0336461030
3620.02800	0.0339749195
3618.59829	0.0343472920
3617.16858	0.0347248092
3615.73887	0.0350709110
3614.30916	0.0353777520
3612.87945	0.0356676914
3611.44974	0.0359775648
3610.02003	0.0363349430
3608.59031	0.0367346704
3607.16060	0.0371392518
3605.73089	0.0375043042
3604.30118	0.0378073305
3602.87147	0.0380527265
3601.44176	0.0382625796
3600.01205	0.0384640209
3598.58234	0.0386790298
3597.15263	0.0389138460
3595.72292	0.0391533785
3594.29321	0.0393712185
3592.86349	0.0395550877
3591.43378	0.0397252478
3590.00407	0.0399269164
3588.57436	0.0401994362
3587.14465	0.0405378267
3585.71494	0.0408912674
3584.28523	0.0412038416
3582.85552	0.0414538682
3581.42581	0.0416524373
3579.99610	0.0418204293
3578.56639	0.0419743396
3577.13667	0.0421224050
3575.70696	0.0422686636
3574.27725	0.0424183123
3572.84754	0.0425826572
3571.41783	0.0427803732
3569.98812	0.0430316515
3568.55841	0.0433405638
3567.12870	0.0436777212
3565.69899	0.0439885259
3564.26928	0.0442302153
3562.83957	0.0444002077
3561.40985	0.0445252694
3559.98014	0.0446383134
3558.55043	0.0447650179
3557.12072	0.0449207537
3555.69101	0.0451078191
3554.26130	0.0453159101
3552.83159	0.0455272645
3551.40188	0.0457294881
3549.97217	0.0459268577
3548.54246	0.0461351424
3547.11275	0.0463650674
3545.68303	0.0466058925
3544.25332	0.0468286611
3542.82361	0.0470065959
3541.39390	0.0471342281
3539.96419	0.0472265109
3538.53448	0.0473070666
3537.10477	0.0473928005
3535.67506	0.0474882312
3534.24535	0.0475884452
3532.81564	0.0476891734
3531.38593	0.0477933660
3529.95621	0.0479116291
3528.52650	0.0480545908
3527.09679	0.0482244380
3525.66708	0.0484107621
3524.23737	0.0485957488
3522.80766	0.0487647355
3521.37795	0.0489130206
3519.94824	0.0490466282
3518.51853	0.0491748005
3517.08882	0.0493005179
3515.65911	0.0494183823
3514.22939	0.0495195650
3512.79968	0.0496021993
3511.36997	0.0496768095
3509.94026	0.0497620888
3508.51055	0.0498733111
3507.08084	0.0500130281
3505.65113	0.0501729213
3504.22142	0.0503416248
3502.79171	0.0505100153
3501.36200	0.0506706201
3499.93229	0.0508159734
3498.50257	0.0509384684
3497.07286	0.0510343313
3495.64315	0.0511055477
3494.21344	0.0511601195
3492.78373	0.0512089618
3491.35402	0.0512631685
3489.92431	0.0513306633
3488.49460	0.0514152199
3487.06489	0.0515161678
3485.63518	0.0516298823
3484.20547	0.0517494306
3482.77575	0.0518658571
3481.34604	0.0519702993
3479.91633	0.0520564951
3478.48662	0.0521235317
3477.05691	0.0521755740
3475.62720	0.0522179604
3474.19749	0.0522547178
3472.76778	0.0522882640
3471.33807	0.0523215234
3469.90836	0.0523577631
3468.47865	0.0523985587
3467.04893	0.0524423122
3465.61922	0.0524854846
3464.18951	0.0525249802
3462.75980	0.0525604151
3461.33009	0.0525931977
3459.90038	0.0526265949
3458.47067	0.0526638851
3457.04096	0.0527047701
3455.61125	0.0527428538
3454.18154	0.0527685732
3452.75183	0.0527747124
3451.32212	0.0527641326
3449.89240	0.0527482592
3448.46269	0.0527408645
3447.03298	0.0527494289
3445.60327	0.0527726971
3444.17356	0.0528048798
3442.74385	0.0528404564
3441.31414	0.0528741963
3439.88443	0.0528986678
3438.45472	0.0529047213
3437.02501	0.0528872944
3435.59530	0.0528509542
3434.16558	0.0528118946
3432.73587	0.0527910516
3431.30616	0.0528008752
3429.87645	0.0528356321
3428.44674	0.0528721213
3427.01703	0.0528825857
3425.58732	0.0528530851
3424.15761	0.0527911410
3422.72790	0.0527205206
3421.29819	0.0526647009
3419.86848	0.0526336096
3418.43876	0.0526214540
3417.00905	0.0526149683
3415.57934	0.0526042730
3414.14963	0.0525877625
3412.71992	0.0525712259
3411.29021	0.0525599793
3409.86050	0.0525525883
3408.43079	0.0525398478
3407.00108	0.0525121540
3405.57137	0.0524682477
3404.14166	0.0524174571
3402.71194	0.0523713976
3401.28223	0.0523337871
3399.85252	0.0522983670
3398.42281	0.0522580743
3396.99310	0.0522131138
3395.56339	0.0521694757
3394.13368	0.0521291345
3392.70397	0.0520824678
3391.27426	0.0520155542
3389.84455	0.0519220717
3388.41484	0.0518100299
3386.98512	0.0516974665
3385.55541	0.0516011976
3384.12570	0.0515304506
3382.69599	0.0514849238
3381.26628	0.0514572673
3379.83657	0.0514352098
3378.40686	0.0514053404
3376.97715	0.0513585769
3375.54744	0.0512941629
3374.11773	0.0512195341
3372.68802	0.0511425883
3371.25830	0.0510646664
3369.82859	0.0509796590
3368.39888	0.0508782491
3366.96917	0.0507592335
3365.53946	0.0506310873
3364.10975	0.0505083017
3362.68004	0.0504022054
3361.25033	0.0503141582
3359.82062	0.0502397865
3358.39091	0.0501754209
3356.96120	0.0501212329
3355.53148	0.0500772223
3354.10177	0.0500352196
3352.67206	0.0499783494
3351.24235	0.0498923026
3349.81264	0.0497776195
3348.38293	0.0496522300
3346.95322	0.0495403670
3345.52351	0.0494563803
3344.09380	0.0493967421
3342.66409	0.0493453220
3341.23438	0.0492837280
3339.80466	0.0492003113
3338.37495	0.0490905382
3336.94524	0.0489576384
3335.51553	0.0488124974
3334.08582	0.0486749932
3332.65611	0.0485690832
3331.22640	0.0485095978
3329.79669	0.0484913625
3328.36698	0.0484873690
3326.93727	0.0484618433
3325.50756	0.0483890586
3324.07784	0.0482646488
3322.64813	0.0481034294
3321.21842	0.0479284525
3319.78871	0.0477606282
3318.35900	0.0476148464
3316.92929	0.0475029871
3315.49958	0.0474339463
3314.06987	0.0474120900
3312.64016	0.0474328473
3311.21045	0.0474817902
3309.78074	0.0475363694
3308.35102	0.0475711450
3306.92131	0.0475653112
3305.49160	0.0475104675
3304.06189	0.0474151485
3302.63218	0.0473027639
3301.20247	0.0472016037
3299.77276	0.0471312255
3298.34305	0.0470941216
3296.91334	0.0470762625
3295.48363	0.0470557250
3294.05392	0.0470140390
3292.62421	0.0469424240
3291.19449	0.0468420684
3289.76478	0.0467203185
3288.33507	0.0465876237
3286.90536	0.0464567542
3285.47565	0.0463415645
3284.04594	0.0462543927
3282.61623	0.0462004915
3281.18652	0.0461740643
3279.75681	0.0461623445
3278.32710	0.0461541116
3276.89739	0.0461465977
3275.46767	0.0461431146
3274.03796	0.0461410433
3272.60825	0.0461255834
3271.17854	0.0460765921
3269.74883	0.0459850430
3268.31912	0.0458637066
3266.88941	0.0457411930
3265.45970	0.0456425250
3264.02999	0.0455745831
3262.60028	0.0455261432
3261.17057	0.0454812720
3259.74085	0.0454310887
3258.31114	0.0453764535
3256.88143	0.0453204215
3255.45172	0.0452628732
3254.02201	0.0452023149
3252.59230	0.0451401286
3251.16259	0.0450814553
3249.73288	0.0450313166
3248.30317	0.0449879318
3246.87346	0.0449418835
3245.44375	0.0448815711
3244.01403	0.0448023528
3242.58432	0.0447112173
3241.15461	0.0446233675
3239.72490	0.0445530042
3238.29519	0.0445033833
3236.86548	0.0444641821
3235.43577	0.0444187038
3234.00606	0.0443544202
3232.57635	0.0442702286
3231.14664	0.0441744737
3229.71693	0.0440764464
3228.28721	0.0439803340
3226.85750	0.0438845269
3225.42779	0.0437870510
3223.99808	0.0436923206
3222.56837	0.0436089113
3221.13866	0.0435440615
3219.70895	0.0434966199
3218.27924	0.0434563085
3216.84953	0.0434087291
3215.41982	0.0433433987
3213.99011	0.0432577692
3212.56039	0.0431576632
3211.13068	0.0430530347
3209.70097	0.0429521725
3208.27126	0.0428582206
3206.84155	0.0427685492
3205.41184	0.0426780917
3203.98213	0.0425839722
3202.55242	0.0424895585
3201.12271	0.0424043834
3199.69300	0.0423393138
3198.26329	0.0422991104
3196.83357	0.0422764532
3195.40386	0.0422524847
3193.97415	0.0422046147
3192.54444	0.0421180986
3191.11473	0.0419961549
3189.68502	0.0418582521
3188.25531	0.0417312533
3186.82560	0.0416336060
3185.39589	0.0415661447
3183.96618	0.0415138751
3182.53647	0.0414557196
3181.10675	0.0413762704
3179.67704	0.0412722714
3178.24733	0.0411514454
3176.81762	0.0410289466
3175.38791	0.0409212746
3173.95820	0.0408409871
3172.52849	0.0407921337
3171.09878	0.0407671966
3169.66907	0.0407494232
3168.23936	0.0407190882
3166.80965	0.0406602137
3165.37993	0.0405664705
3163.95022	0.0404426344
3162.52051	0.0403022990
3161.09080	0.0401637405
3159.66109	0.0400447026
3158.23138	0.0399550684
3156.80167	0.0398944207
3155.37196	0.0398509800
3153.94225	0.0398067459
3152.51254	0.0397449620
3151.08283	0.0396580249
3149.65311	0.0395506918
3148.22340	0.0394385085
3146.79369	0.0393403284
3145.36398	0.0392690301
3143.93427	0.0392239206
3142.50456	0.0391912833
3141.07485	0.0391504616
3139.64514	0.0390845165
3138.21543	0.0389884263
3136.78572	0.0388713516
3135.35601	0.0387511626
3133.92629	0.0386448167
3132.49658	0.0385584421
3131.06687	0.0384860560
3129.63716	0.0384161398
3128.20745	0.0383433849
3126.77774	0.0382750742
3125.34803	0.0382260010
3123.91832	0.0382061563
3122.48861	0.0382094085
3121.05890	0.0382146649
3119.62919	0.0381972529
3118.19948	0.0381434932
3116.76976	0.0380564258
3115.34005	0.0379505344
3113.91034	0.0378402323
3112.48063	0.0377303250
3111.05092	0.0376160741
3109.62121	0.0374898836
3108.19150	0.0373513475
3106.76179	0.0372103415
3105.33208	0.0370828062
3103.90237	0.0369811244
3102.47266	0.0369062647
3101.04294	0.0368470326
3099.61323	0.0367885381
3098.18352	0.0367212631
3096.75381	0.0366462544
3095.32410	0.0365721583
3093.89439	0.0365080684
3092.46468	0.0364574753
3091.03497	0.0364167951
3089.60526	0.0363781750
3088.17555	0.0363345221
3086.74584	0.0362824276
3085.31612	0.0362229981
3083.88641	0.0361582562
3082.45670	0.0360870026
3081.02699	0.0360023975
3079.59728	0.0358949788
3078.16757	0.0357597321
3076.73786	0.0356046930
3075.30815	0.0354504623
3073.87844	0.0353224874
3072.44873	0.0352365710
3071.01902	0.0351883732
3069.58930	0.0351547450
3068.15959	0.0351048149
3066.72988	0.0350175127
3065.30017	0.0348916538
3063.87046	0.0347455852
3062.44075	0.0346051455
3061.01104	0.0344902836
3059.58133	0.0344062969
3058.15162	0.0343460888
3056.72191	0.0342967249
3055.29220	0.0342477895
3053.86248	0.0341946296
3052.43277	0.0341378376
3051.00306	0.0340809673
3049.57335	0.0340280496
3048.14364	0.0339806303
3046.71393	0.0339364856
3045.28422	0.0338894092
3043.85451	0.0338312835
3042.42480	0.0337568000
3040.99509	0.0336652920
3039.56538	0.0335610807
3038.13566	0.0334495679
3036.70595	0.0333355963
3035.27624	0.0332236923
3033.84653	0.0331192501
3032.41682	0.0330274887
3030.98711	0.0329498723
3029.55740	0.0328814313
3028.12769	0.0328121074
3026.69798	0.0327327177
3025.26827	0.0326405019
3023.83856	0.0325407758
3022.40884	0.0324440598
3020.97913	0.0323619172
3019.54942	0.0323016271
3018.11971	0.0322624519
3016.69000	0.0322334543
3015.26029	0.0321966559
3013.83058	0.0321347713
3012.40087	0.0320415124
3010.97116	0.0319251530
3009.54145	0.0318032503
3008.11174	0.0316930823
3006.68202	0.0316023976
3005.25231	0.0315281823
3003.82260	0.0314606316
3002.39289	0.0313890278
3000.96318	0.0313080885
2999.53347	0.0312188491
2998.10376	0.0311283208
2996.67405	0.0310437046
2995.24434	0.0309672505
2993.81463	0.0308943950
2992.38492	0.0308176335
2990.95520	0.0307327155
2989.52549	0.0306427330
2988.09578	0.0305549614
2986.66607	0.0304756220
2985.23636	0.0304067638
2983.80665	0.0303467158
2982.37694	0.0302919503
2980.94723	0.0302380230
2979.51752	0.0301784147
2978.08781	0.0301074125
2976.65810	0.0300235208
2975.22838	0.0299319923
2973.79867	0.0298415646
2972.36896	0.0297591686
2970.93925	0.0296862647
2969.50954	0.0296213571
2968.07983	0.0295633003
2966.65012	0.0295135379
2965.22041	0.0294721462
2963.79070	0.0294348877
2962.36099	0.0293953586
2960.93128	0.0293496586
2959.50157	0.0293014143
2958.07185	0.0292572752
2956.64214	0.0292198397
2955.21243	0.0291823521
2953.78272	0.0291319415
2952.35301	0.0290599465
2950.92330	0.0289688967
2949.49359	0.0288720857
2948.06388	0.0287851412
2946.63417	0.0287154727
2945.20446	0.0286589209
2943.77475	0.0286047272
2942.34503	0.0285437386
2940.91532	0.0284740794
2939.48561	0.0284016132
2938.05590	0.0283365101
2936.62619	0.0282882415
2935.19648	0.0282622427
2933.76677	0.0282564424
2932.33706	0.0282606129
2930.90735	0.0282575749
2929.47764	0.0282300599
2928.04793	0.0281698983
2926.61821	0.0280840881
2925.18850	0.0279923324
2923.75879	0.0279165525
2922.32908	0.0278678052
2920.89937	0.0278414730
2919.46966	0.0278195050
2918.03995	0.0277823322
2916.61024	0.0277172104
2915.18053	0.0276207868
2913.75082	0.0274974126
2912.32111	0.0273553263
2910.89139	0.0272048265
2909.46168	0.0270575471
2908.03197	0.0269228201
2906.60226	0.0268047657
2905.17255	0.0267017186
2903.74284	0.0266097039
2902.31313	0.0265279729
2900.88342	0.0264594350
2899.45371	0.0264047720
2898.02400	0.0263574049
2896.59429	0.0263036899
2895.16457	0.0262315571
2893.73486	0.0261397250
2892.30515	0.0260377973
2890.87544	0.0259389710
2889.44573	0.0258503594
2888.01602	0.0257711876
2886.58631	0.0256975498
2885.15660	0.0256280173
2883.72689	0.0255657993
2882.29718	0.0255141575
2880.86747	0.0254725143
2879.43775	0.0254359264
2878.00804	0.0253976118
2876.57833	0.0253521930
2875.14862	0.0252976958
2873.71891	0.0252339598
2872.28920	0.0251625814
2870.85949	0.0250860583
2869.42978	0.0250082333
2868.00007	0.0249349717
2866.57036	0.0248726867
2865.14065	0.0248253495
2863.71093	0.0247921050
2862.28122	0.0247660410
2860.85151	0.0247376226
2859.42180	0.0246988777
2857.99209	0.0246489011
2856.56238	0.0245952047
2855.13267	0.0245495141
2853.70296	0.0245200414
2852.27325	0.0245038271
2850.84354	0.0244847648
2849.41383	0.0244415496
2847.98411	0.0243600346
2846.55440	0.0242442898
2845.12469	0.0241137706
2843.69498	0.0239933599
2842.26527	0.0238982234
2840.83556	0.0238280483
2839.40585	0.0237709265
2837.97614	0.0237122271
2836.54643	0.0236440506
2835.11672	0.0235670563
2833.68701	0.0234876983
2832.25729	0.0234126709
2830.82758	0.0233439952
2829.39787	0.0232777596
2827.96816	0.0232076570
2826.53845	0.0231307689
2825.10874	0.0230514631
2823.67903	0.0229777135
2822.24932	0.0229146183
2820.81961	0.0228603706
2819.38990	0.0228079595
2817.96019	0.0227521732
2816.53047	0.0226933099
2815.10076	0.0226353556
2813.67105	0.0225817990
2812.24134	0.0225322563
2810.81163	0.0224838909
2809.38192	0.0224344432
2807.95221	0.0223824643
2806.52250	0.0223283656
2805.09279	0.0222739484
2803.66308	0.0222231597
2802.23337	0.0221799780
2800.80366	0.0221441295
2799.37394	0.0221094266
2797.94423	0.0220663939
2796.51452	0.0220091753
2795.08481	0.0219394416
2793.65510	0.0218637828
2792.22539	0.0217884108
2790.79568	0.0217148475
2789.36597	0.0216410793
2787.93626	0.0215659626
2786.50655	0.0214912388
2785.07684	0.0214207452
2783.64712	0.0213586371
2782.21741	0.0213067587
2780.78770	0.0212632064
2779.35799	0.0212224312
2777.92828	0.0211764965
2776.49857	0.0211196411
2775.06886	0.0210517328
2773.63915	0.0209794622
2772.20944	0.0209117122
2770.77973	0.0208537243
2769.35002	0.0208036453
2767.92030	0.0207565054
2766.49059	0.0207077954
2765.06088	0.0206571892
2763.63117	0.0206059925
2762.20146	0.0205526855
2760.77175	0.0204920042
2759.34204	0.0204187687
2757.91233	0.0203341246
2756.48262	0.0202471651
2755.05291	0.0201711226
2753.62320	0.0201148055
2752.19348	0.0200762264
2750.76377	0.0200439375
2749.33406	0.0200036019
2747.90435	0.0199456532
2746.47464	0.0198695827
2745.04493	0.0197826345
2743.61522	0.0196956228
2742.18551	0.0196181070
2740.75580	0.0195549838
2739.32609	0.0195053238
2737.89638	0.0194623321
2736.46666	0.0194167718
2735.03695	0.0193626080
2733.60724	0.0193009563
2732.17753	0.0192397460
2730.74782	0.0191884190
2729.31811	0.0191512723
2727.88840	0.0191235170
2726.45869	0.0190946013
2725.02898	0.0190540012
2723.59927	0.0189970713
2722.16956	0.0189261418
2720.73984	0.0188481417
2719.31013	0.0187712088
2717.88042	0.0187023431
2716.45071	0.0186454318
2715.02100	0.0185993090
2713.59129	0.0185567308
2712.16158	0.0185071044
2710.73187	0.0184413064
2709.30216	0.0183578562
2707.87245	0.0182641912
2706.44274	0.0181721654
2705.01302	0.0180912241
2703.58331	0.0180237889
2702.15360	0.0179656707
2700.72389	0.0179096926
2699.29418	0.0178498104
2697.86447	0.0177825745
2696.43476	0.0177080147
2695.00505	0.0176302325
2693.57534	0.0175562911
2692.14563	0.0174943022
2690.71592	0.0174491368
2689.28620	0.0174194146
2687.85649	0.0173987485
2686.42678	0.0173791610
2684.99707	0.0173548590
2683.56736	0.0173235275
2682.13765	0.0172852203
2680.70794	0.0172401574
2679.27823	0.0171882585
2677.84852	0.0171295535
2676.41881	0.0170667358
2674.98910	0.0170051921
2673.55938	0.0169514641
2672.12967	0.0169093162
2670.69996	0.0168763213
2669.27025	0.0168439206
2667.84054	0.0168013237
2666.41083	0.0167424548
2664.98112	0.0166692585
2663.55141	0.0165916886
2662.12170	0.0165216345
2660.69199	0.0164667834
2659.26228	0.0164284445
2657.83256	0.0164012928
2656.40285	0.0163774490
2654.97314	0.0163489841
2653.54343	0.0163110867
2652.11372	0.0162628721
2650.68401	0.0162078924
2649.25430	0.0161520597
2647.82459	0.0161002632
2646.39488	0.0160547588
2644.96517	0.0160136353
2643.53546	0.0159723293
2642.10575	0.0159253087
2640.67603	0.0158684924
2639.24632	0.0158014800
2637.81661	0.0157287363
2636.38690	0.0156586878
2634.95719	0.0156012354
2633.52748	0.0155619811
2632.09777	0.0155392289
2630.66806	0.0155252786
2629.23835	0.0155117307
2627.80864	0.0154944807
2626.37893	0.0154755153
2624.94921	0.0154579990
2623.51950	0.0154429236
2622.08979	0.0154267233
2620.66008	0.0154038174
2619.23037	0.0153705347
2617.80066	0.0153270643
2616.37095	0.0152780470
2614.94124	0.0152309937
2613.51153	0.0151938898
2612.08182	0.0151720690
2610.65211	0.0151667884
2609.22239	0.0151737845
2607.79268	0.0151863303
2606.36297	0.0151974559
2604.93326	0.0152024152
2603.50355	0.0151993856
2602.07384	0.0151889846
2600.64413	0.0151739996
2599.21442	0.0151586123
2597.78471	0.0151472203
2596.35500	0.0151427444
2594.92529	0.0151441647
2593.49557	0.0151471673
2592.06586	0.0151453447
2590.63615	0.0151336305
2589.20644	0.0151100708
2587.77673	0.0150770247
2586.34702	0.0150393452
2584.91731	0.0150043480
2583.48760	0.0149783837
2582.05789	0.0149655491
2580.62818	0.0149658974
2579.19847	0.0149750346
2577.76875	0.0149871456
2576.33904	0.0149981314
2574.90933	0.0150082605
2573.47962	0.0150208278
2572.04991	0.0150391841
2570.62020	0.0150629813
2569.19049	0.0150884688
2567.76078	0.0151109286
2566.33107	0.0151288332
2564.90136	0.0151441917
2563.47165	0.0151612125
2562.04193	0.0151835959
2560.61222	0.0152127631
2559.18251	0.0152476160
2557.75280	0.0152850458
2556.32309	0.0153210843
2554.89338	0.0153517351
2553.46367	0.0153741287
2552.03396	0.0153882084
2550.60425	0.0153982118
2549.17454	0.0154107111
2547.74483	0.0154325170
2546.31511	0.0154667972
2544.88540	0.0155113013
2543.45569	0.0155594591
2542.02598	0.0156046972
2540.59627	0.0156436060
2539.16656	0.0156769641
2537.73685	0.0157077480
2536.30714	0.0157383457
2534.87743	0.0157699920
2533.44772	0.0158031192
2532.01801	0.0158391725
2530.58829	0.0158798229
2529.15858	0.0159257110
2527.72887	0.0159758218
2526.29916	0.0160275213
2524.86945	0.0160779934
2523.43974	0.0161252730
2522.01003	0.0161686894
2520.58032	0.0162083749
2519.15061	0.0162446517
2517.72090	0.0162771158
2516.29119	0.0163064636
2514.86147	0.0163348727
2513.43176	0.0163668860
2512.00205	0.0164066702
2510.57234	0.0164545774
2509.14263	0.0165064689
2507.71292	0.0165559743
2506.28321	0.0166003481
2504.85350	0.0166425481
2503.42379	0.0166888405
2501.99408	0.0167430211
2500.56437	0.0168034229
2499.13465	0.0168653950
2497.70494	0.0169251952
2496.27523	0.0169824734
2494.84552	0.0170376599
2493.41581	0.0170906167
2491.98610	0.0171416160
2490.55639	0.0171936713
2489.12668	0.0172509048
2487.69697	0.0173139088
2486.26726	0.0173761696
2484.83755	0.0174265280
2483.40784	0.0174577329
2481.97812	0.0174722839
2480.54841	0.0174813662
2479.11870	0.0174968895
2477.68899	0.0175250806
2476.25928	0.0175654553
2474.82957	0.0176153779
2473.39986	0.0176723972
2471.97015	0.0177335218
2470.54044	0.0177932270
2469.11073	0.0178448744
2467.68102	0.0178847685
2466.25130	0.0179149806
2464.82159	0.0179415792
2463.39188	0.0179693401
2461.96217	0.0179991797
2460.53246	0.0180285107
2459.10275	0.0180563312
2457.67304	0.0180841535
2456.24333	0.0181142706
2454.81362	0.0181465242
2453.38391	0.0181766469
2451.95420	0.0181995369
2450.52448	0.0182126276
2449.09477	0.0182188917
2447.66506	0.0182256941
2446.23535	0.0182415675
2444.80564	0.0182713997
2443.37593	0.0183141138
2441.94622	0.0183615834
2440.51651	0.0184033327
2439.08680	0.0184330419
2437.65709	0.0184535943
2436.22738	0.0184753109
2434.79766	0.0185074285
2433.36795	0.0185508132
2431.93824	0.0185963642
2430.50853	0.0186324082
2429.07882	0.0186534040
2427.64911	0.0186632127
2426.21940	0.0186709408
2424.78969	0.0186832640
2423.35998	0.0187014788
2421.93027	0.0187232886
2420.50056	0.0187462885
2419.07084	0.0187696405
2417.64113	0.0187935084
2416.21142	0.0188166201
2414.78171	0.0188354347
2413.35200	0.0188455191
2411.92229	0.0188432485
2410.49258	0.0188291911
2409.06287	0.0188094564
2407.63316	0.0187933743
2406.20345	0.0187895894
2404.77374	0.0188006721
2403.34402	0.0188222434
2401.91431	0.0188456271
2400.48460	0.0188628212
2399.05489	0.0188701469
2397.62518	0.0188684445
2396.19547	0.0188616589
2394.76576	0.0188540611
2393.33605	0.0188490879
2391.90634	0.0188480597
2390.47663	0.0188507102
2389.04692	0.0188553333
2387.61720	0.0188607126
2386.18749	0.0188662279
2384.75778	0.0188699309
2383.32807	0.0188662279
2381.89836	0.0188468173
2380.46865	0.0188036449
2379.03894	0.0187348556
2377.60923	0.0186489448
2376.17952	0.0185624566
2374.74981	0.0184903294
2373.32010	0.0184345804
2371.89038	0.0183786508
2370.46067	0.0182942133
2369.03096	0.0181600451
2367.60125	0.0179814547
2366.17154	0.0177954379
2364.74183	0.0176556818
2363.31212	0.0176035166
2361.88241	0.0176473521
2360.45270	0.0177649371
2359.02299	0.0179224256
2357.59328	0.0180917364
2356.16356	0.0182532575
2354.73385	0.0183882099
2353.30414	0.0184792820
2351.87443	0.0185175315
2350.44472	0.0185045376
2349.01501	0.0184511375
2347.58530	0.0183727350
2346.15559	0.0182903260
2344.72588	0.0182282850
2343.29617	0.0182065815
2341.86646	0.0182286911
2340.43674	0.0182771496
2339.00703	0.0183270201
2337.57732	0.0183633380
2336.14761	0.0183868594
2334.71790	0.0184098147
2333.28819	0.0184462219
2331.85848	0.0184995141
2330.42877	0.0185559187
2328.99906	0.0185906366
2327.56935	0.0185836665
2326.13964	0.0185369272
2324.70993	0.0184748527
2323.28021	0.0184304211
2321.85050	0.0184261538
2320.42079	0.0184625089
2318.99108	0.0185223129
2317.56137	0.0185842067
2316.13166	0.0186334886
2314.70195	0.0186660774
2313.27224	0.0186852645
2311.84253	0.0186972897
2310.41282	0.0187077764
2308.98311	0.0187203158
2307.55339	0.0187372342
2306.12368	0.0187597759
2304.69397	0.0187853184
2303.26426	0.0188072938
2301.83455	0.0188159980
2300.40484	0.0188050512
2298.97513	0.0187782645
2297.54542	0.0187500734
2296.11571	0.0187379643
2294.68600	0.0187505595
2293.25629	0.0187811553
2291.82657	0.0188125931
2290.39686	0.0188296512
2288.96715	0.0188281089
2287.53744	0.0188156739
2286.10773	0.0188031588
2284.67802	0.0187955368
2283.24831	0.0187899675
2281.81860	0.0187801551
2280.38889	0.0187632628
2278.95918	0.0187428296
2277.52947	0.0187261254
2276.09975	0.0187183972
2274.67004	0.0187184773
2273.24033	0.0187194515
2271.81062	0.0187137481
2270.38091	0.0186975338
2268.95120	0.0186735094
2267.52149	0.0186484326
2266.09178	0.0186295714
2264.66207	0.0186215192
2263.23236	0.0186241679
2261.80265	0.0186337326
2260.37293	0.0186442975
2258.94322	0.0186511874
2257.51351	0.0186537020
2256.08380	0.0186549444
2254.65409	0.0186584033
2253.22438	0.0186638609
2251.79467	0.0186667535
2250.36496	0.0186617263
2248.93525	0.0186487567
2247.50554	0.0186329484
2246.07583	0.0186211672
2244.64611	0.0186152235
2243.21640	0.0186102781
2241.78669	0.0185991470
2240.35698	0.0185792074
2238.92727	0.0185549464
2237.49756	0.0185355507
2236.06785	0.0185288768
2234.63814	0.0185363609
2233.20843	0.0185528118
2231.77872	0.0185692646
2230.34901	0.0185768846
2228.91929	0.0185701028
2227.48958	0.0185478423
2226.05987	0.0185138304
2224.63016	0.0184749067
2223.20045	0.0184388757
2221.77074	0.0184112452
2220.34103	0.0183929354
2218.91132	0.0183817018
2217.48161	0.0183747616
2216.05190	0.0183726288
2214.62219	0.0183786228
2213.19247	0.0183945838
2211.76276	0.0184155945
2210.33305	0.0184301250
2208.90334	0.0184265859
2207.47363	0.0184006598
2206.04392	0.0183594767
2204.61421	0.0183167327
2203.18450	0.0182843320
2201.75479	0.0182671063
2200.32508	0.0182625707
2198.89537	0.0182647854
2197.46565	0.0182677545
2196.03594	0.0182674043
2194.60623	0.0182617344
2193.17652	0.0182508547
2191.74681	0.0182372220
2190.31710	0.0182248298
2188.88739	0.0182173252
2187.45768	0.0182150304
2186.02797	0.0182144903
2184.59826	0.0182107110
2183.16855	0.0181997791
2181.73883	0.0181809645
2180.30912	0.0181562938
2178.87941	0.0181271173
2177.44970	0.0180939771
2176.01999	0.0180575456
2174.59028	0.0180214681
2173.16057	0.0179923009
2171.73086	0.0179745480
2170.30115	0.0179663189
2168.87144	0.0179590881
2167.44173	0.0179427397
2166.01202	0.0179127939
2164.58230	0.0178721435
2163.15259	0.0178295001
2161.72288	0.0177948456
2160.29317	0.0177761838
2158.86346	0.0177769642
2157.43375	0.0177930649
2156.00404	0.0178120509
2154.57433	0.0178176612
2153.14462	0.0177988634
2151.71491	0.0177570097
2150.28520	0.0177057497
2148.85548	0.0176613443
2147.42577	0.0176333059
2145.99606	0.0176207703
2144.56635	0.0176173188
2143.13664	0.0176178850
2141.70693	0.0176205002
2140.27722	0.0176235735
2138.84751	0.0176221728
2137.41780	0.0176090430
2135.98809	0.0175796077
2134.55838	0.0175367240
2133.12866	0.0174906645
2131.69895	0.0174528547
2130.26924	0.0174293853
2128.83953	0.0174174216
2127.40982	0.0174091496
2125.98011	0.0173976440
2124.55040	0.0173812341
2123.12069	0.0173627790
2121.69098	0.0173459407
2120.26127	0.0173316356
2118.83156	0.0173180588
2117.40184	0.0173025951
2115.97213	0.0172836576
2114.54242	0.0172609519
2113.11271	0.0172341242
2111.68300	0.0172023438
2110.25329	0.0171650182
2108.82358	0.0171238706
2107.39387	0.0170835368
2105.96416	0.0170501787
2104.53445	0.0170281567
2103.10474	0.0170163643
2101.67502	0.0170080457
2100.24531	0.0169953667
2098.81560	0.0169748291
2097.38589	0.0169501994
2095.95618	0.0169299860
2094.52647	0.0169216152
2093.09676	0.0169261098
2091.66705	0.0169365257
2090.23734	0.0169412363
2088.80763	0.0169286132
2087.37792	0.0168933831
2085.94820	0.0168403685
2084.51849	0.0167839434
2083.08878	0.0167418364
2081.65907	0.0167251024
2080.22936	0.0167311840
2078.79965	0.0167458449
2077.36994	0.0167524368
2075.94023	0.0167421866
2074.51052	0.0167181082
2073.08081	0.0166894048
2071.65110	0.0166624524
2070.22138	0.0166364685
2068.79167	0.0166063458
2067.36196	0.0165686943
2065.93225	0.0165256411
2064.50254	0.0164831840
2063.07283	0.0164474789
2061.64312	0.0164214820
2060.21341	0.0164042506
2058.78370	0.0163929332
2057.35399	0.0163828526
2055.92428	0.0163690094
2054.49456	0.0163473450
2053.06485	0.0163174551
2051.63514	0.0162841287
2050.20543	0.0162542723
2048.77572	0.0162320491
2047.34601	0.0162156578
2045.91630	0.0161994547
2044.48659	0.0161791947
2043.05688	0.0161558744
2041.62717	0.0161332525
2040.19746	0.0161133185
2038.76774	0.0160932783
2037.33803	0.0160684306
2035.90832	0.0160359554
2034.47861	0.0159967970
2033.04890	0.0159543641
2031.61919	0.0159129556
2030.18948	0.0158770289
2028.75977	0.0158508252
2027.33006	0.0158363264
2025.90035	0.0158310384
2024.47064	0.0158281662
2023.04092	0.0158199240
2021.61121	0.0158023927
2020.18150	0.0157762207
2018.75179	0.0157442782
2017.32208	0.0157087669
2015.89237	0.0156708173
2014.46266	0.0156320129
2013.03295	0.0155965928
2011.60324	0.0155698955
2010.17353	0.0155556491
2008.74382	0.0155532071
2007.31411	0.0155580631
2005.88439	0.0155655490
2004.45468	0.0155746713
2003.02497	0.0155875776
2001.59526	0.0156052336
2000.16555	0.0156220850
1998.73584	0.0156267006
1997.30613	0.0156094730
1995.87642	0.0155708352
1994.44671	0.0155226495
1993.01700	0.0154801020
1991.58729	0.0154515337
1990.15757	0.0154347699
1988.72786	0.0154228341
1987.29815	0.0154120252
1985.86844	0.0154044619
1984.43873	0.0154038174
1983.00902	0.0154114077
1981.57931	0.0154250069
1980.14960	0.0154412873
1978.71989	0.0154572474
1977.29018	0.0154703381
1975.86047	0.0154785197
1974.43075	0.0154812019
1973.00104	0.0154805584
1971.57133	0.0154806925
1970.14162	0.0154857356
1968.71191	0.0154971099
1967.28220	0.0155129377
1965.85249	0.0155294631
1964.42278	0.0155439777
1962.99307	0.0155566148
1961.56336	0.0155695202
1960.13365	0.0155845722
1958.70393	0.0156006990
1957.27422	0.0156141957
1955.84451	0.0156223262
1954.41480	0.0156259220
1952.98509	0.0156293847
1951.55538	0.0156366024
1950.12567	0.0156471487
1948.69596	0.0156563800
1947.26625	0.0156587679
1945.83654	0.0156520326
1944.40683	0.0156393386
1942.97711	0.0156281218
1941.54740	0.0156262983
1940.11769	0.0156368706
1938.68798	0.0156563800
1937.25827	0.0156781990
1935.82856	0.0156978983
1934.39885	0.0157162827
1932.96914	0.0157378092
1931.53943	0.0157654025
1930.10972	0.0157969166
1928.68001	0.0158264469
1927.25029	0.0158482213
1925.82058	0.0158598199
1924.39087	0.0158619937
1922.96116	0.0158576984
1921.53145	0.0158523023
1920.10174	0.0158538055
1918.67203	0.0158707742
1917.24232	0.0159082301
1915.81261	0.0159632266
1914.38290	0.0160263665
1912.95319	0.0160865616
1911.52347	0.0161351860
1910.09376	0.0161689855
1908.66405	0.0161907766
1907.23434	0.0162073281
1905.80463	0.0162259489
1904.37492	0.0162501335
1902.94521	0.0162808243
1901.51550	0.0163180735
1900.08579	0.0163624771
1898.65608	0.0164132286
1897.22637	0.0164656006
1895.79665	0.0165117942
1894.36694	0.0165464021
1892.93723	0.0165698770
1891.50752	0.0165886488
1890.07781	0.0166101120
1888.64810	0.0166378412
1887.21839	0.0166713018
1885.78868	0.0167079140
1884.35897	0.0167445000
1882.92926	0.0167788304
1881.49955	0.0168103110
1880.06983	0.0168406647
1878.64012	0.0168723650
1877.21041	0.0169050358
1875.78070	0.0169341583
1874.35099	0.0169547759
1872.92128	0.0169690959
1871.49157	0.0169886909
1870.06186	0.0170295555
1868.63215	0.0170986671
1867.20244	0.0171854310
1865.77273	0.0172687359
1864.34301	0.0173337106
1862.91330	0.0173796993
1861.48359	0.0174151845
1860.05388	0.0174482744
1858.62417	0.0174813122
1857.19446	0.0175119005
1855.76475	0.0175385568
1854.33504	0.0175630581
1852.90533	0.0175898783
1851.47562	0.0176220909
1850.04591	0.0176606160
1848.61619	0.0177060738
1847.18648	0.0177612156
1845.75677	0.0178276934
1844.32706	0.0179017074
1842.89735	0.0179735217
1841.46764	0.0180343930
1840.03793	0.0180828851
1838.60822	0.0181227177
1837.17851	0.0181583185
1835.74880	0.0181908440
1834.31909	0.0182208084
1832.88938	0.0182502065
1831.45966	0.0182828475
1830.02995	0.0183214564
1828.60024	0.0183662288
1827.17053	0.0184171870
1825.74082	0.0184767153
1824.31111	0.0185474362
1822.88140	0.0186269227
1821.45169	0.0187055059
1820.02198	0.0187706407
1818.59227	0.0188139994
1817.16256	0.0188356526
1815.73284	0.0188444108
1814.30313	0.0188530888
1812.87342	0.0188732035
1811.44371	0.0189116485
1810.01400	0.0189683791
1808.58429	0.0190371778
1807.15458	0.0191101264
1805.72487	0.0191816539
1804.29516	0.0192506220
1802.86545	0.0193175990
1801.43574	0.0193819068
1800.00602	0.0194396991
1798.57631	0.0194858573
1797.14660	0.0195194855
1795.71689	0.0195471849
1794.28718	0.0195838492
1792.85747	0.0196454599
1791.42776	0.0197366066
1789.99805	0.0198438950
1788.56834	0.0199456532
1787.13863	0.0200267248
1785.70892	0.0200850088
1784.27920	0.0201276578
1782.84949	0.0201653205
1781.41978	0.0202059429
1779.99007	0.0202518031
1778.56036	0.0202998649
1777.13065	0.0203453563
1775.70094	0.0203876495
1774.27123	0.0204341523
1772.84152	0.0204999559
1771.41181	0.0205961671
1769.98210	0.0207171608
1768.55238	0.0208431594
1767.12267	0.0209565349
1765.69296	0.0210511889
1764.26325	0.0211296957
1762.83354	0.0211992189
1761.40383	0.0212685075
1759.97412	0.0213470533
1758.54441	0.0214407612
1757.11470	0.0215465929
1755.68499	0.0216537043
1754.25528	0.0217518322
1752.82556	0.0218412429
1751.39585	0.0219342951
1749.96614	0.0220468119
1748.53643	0.0221839566
1747.10672	0.0223380122
1745.67701	0.0224995669
1744.24730	0.0226645097
1742.81759	0.0228284225
1741.38788	0.0229803324
1739.95817	0.0231076162
1738.52846	0.0232098419
1737.09874	0.0233078580
1735.66903	0.0234385449
1734.23932	0.0236314218
1732.80961	0.0238814037
1731.37990	0.0241479501
1729.95019	0.0243901256
1728.52048	0.0245915893
1727.09077	0.0247547235
1725.66106	0.0248868056
1724.23135	0.0249951798
1722.80164	0.0250904188
1721.37192	0.0251936615
1719.94221	0.0253420118
1718.51250	0.0255795810
1717.08279	0.0259192679
1715.65308	0.0263074581
1714.22337	0.0266592745
1712.79366	0.0269316621
1711.36395	0.0271359347
1709.93424	0.0273048785
1708.50453	0.0274667200
1707.07482	0.0276369806
1705.64510	0.0278202221
1704.21539	0.0280202739
1702.78568	0.0282486230
1701.35597	0.0285255760
1699.92626	0.0288644768
1698.49655	0.0292478614
1697.06684	0.0296257064
1695.63713	0.0299522392
1694.20742	0.0302148219
1692.77771	0.0304269474
1691.34800	0.0306090936
1689.91828	0.0307824519
1688.48857	0.0309723653
1687.05886	0.0312119517
1685.62915	0.0315276794
1684.19944	0.0319035351
1682.76973	0.0322703160
1681.34002	0.0325658880
1679.91031	0.0327845514
1678.48060	0.0329569392
1677.05089	0.0331131890
1675.62118	0.0332691595
1674.19147	0.0334308371
1672.76175	0.0336041488
1671.33204	0.0337940119
1669.90233	0.0339947641
1668.47262	0.0341872089
1667.04291	0.0343550257
1665.61320	0.0344994739
1664.18349	0.0346341357
1662.75378	0.0347650200
1661.32407	0.0348773748
1659.89436	0.0349471159
1658.46465	0.0349625200
1657.03493	0.0349350236
1655.60522	0.0348937288
1654.17551	0.0348714851
1652.74580	0.0348792002
1651.31609	0.0348936170
1649.88638	0.0348866880
1648.45667	0.0348520763
1647.02696	0.0347955339
1645.59725	0.0347159766
1644.16754	0.0346043333
1642.73783	0.0344550572
1641.30811	0.0342696942
1639.87840	0.0340529680
1638.44869	0.0338088423
1637.01898	0.0335423425
1635.58927	0.0332619511
1634.15956	0.0329759568
1632.72985	0.0326863825
1631.30014	0.0323889144
1629.87043	0.0320800021
1628.44072	0.0317618921
1627.01101	0.0314424857
1625.58129	0.0311312675
1624.15158	0.0308331400
1622.72187	0.0305448528
1621.29216	0.0302573387
1619.86245	0.0299621951
1618.43274	0.0296568032
1617.00303	0.0293490496
1615.57332	0.0290541053
1614.14361	0.0287840087
1612.71390	0.0285382103
1611.28419	0.0283063930
1609.85447	0.0280782618
1608.42476	0.0278505273
1606.99505	0.0276279598
1605.56534	0.0274169203
1604.13563	0.0272192415
1602.70592	0.0270299427
1601.27621	0.0268418845
1599.84650	0.0266510155
1598.41679	0.0264587738
1596.98708	0.0262715686
1595.55737	0.0260979384
1594.12765	0.0259449612
1592.69794	0.0258131344
1591.26823	0.0256953817
1589.83852	0.0255804323
1588.40881	0.0254588444
1586.97910	0.0253272206
1585.54939	0.0251883660
1584.11968	0.0250474457
1582.68997	0.0249094758
1581.26026	0.0247786473
1579.83055	0.0246598050
1578.40083	0.0245581698
1576.97112	0.0244762208
1575.54141	0.0244099759
1574.11170	0.0243492741
1572.68199	0.0242856499
1571.25228	0.0242168903
1569.82257	0.0241452139
1568.39286	0.0240725894
1566.96315	0.0239971615
1565.53344	0.0239136498
1564.10373	0.0238169730
1562.67401	0.0237068962
1561.24430	0.0235928558
1559.81459	0.0235003773
1558.38488	0.0234596636
1556.95517	0.0234714672
1555.52546	0.0235033836
1554.09575	0.0235275384
1552.66604	0.0235354919
1551.23633	0.0235268287
1549.80662	0.0234998576
1548.37691	0.0234518778
1546.94719	0.0233824849
1545.51748	0.0232973434
1544.08777	0.0232099239
1542.65806	0.0231411979
1541.22835	0.0231095552
1539.79864	0.0231112204
1538.36893	0.0231199022
1536.93922	0.0231141970
1535.50951	0.0230873339
1534.07980	0.0230402723
1532.65009	0.0229771677
1531.22037	0.0229050387
1529.79066	0.0228341781
1528.36095	0.0227735862
1526.93124	0.0227260944
1525.50153	0.0226860009
1524.07182	0.0226416010
1522.64211	0.0225833245
1521.21240	0.0225130077
1519.78269	0.0224433281
1518.35298	0.0223865248
1516.92327	0.0223440081
1515.49356	0.0223066192
1514.06384	0.0222639758
1512.63413	0.0222106818
1511.20442	0.0221518390
1509.77471	0.0221051499
1508.34500	0.0220968425
1506.91529	0.0221361760
1505.48558	0.0221902225
1504.05587	0.0222138967
1502.62616	0.0221920740
1501.19645	0.0221368298
1499.76674	0.0220678635
1498.33702	0.0220007878
1496.90731	0.0219398215
1495.47760	0.0218764953
1494.04789	0.0217993520
1492.61818	0.0217066016
1491.18847	0.0216126200
1489.75876	0.0215436835
1488.32905	0.0215202346
1486.89934	0.0215382148
1485.46963	0.0215707775
1484.03992	0.0215912629
1482.61020	0.0215878077
1481.18049	0.0215636771
1479.75078	0.0215296466
1478.32107	0.0214969516
1476.89136	0.0214738604
1475.46165	0.0214664619
1474.03194	0.0214777756
1472.60223	0.0215042140
1471.17252	0.0215346515
1469.74281	0.0215584543
1468.31310	0.0215702876
1466.88338	0.0215669684
1465.45367	0.0215432197
1464.02396	0.0214937143
1462.59425	0.0214207172
1461.16454	0.0213397946
1459.73483	0.0212806873
1458.30512	0.0212756041
1456.87541	0.0213322900
1455.44570	0.0214142185
1454.01599	0.0214716829
1452.58628	0.0214846022
1451.15656	0.0214636065
1449.72685	0.0214306172
1448.29714	0.0214059781
1446.86743	0.0214011651
1445.43772	0.0214155503
1444.00801	0.0214393474
1442.57830	0.0214617029
1441.14859	0.0214769337
1439.71888	0.0214847121
1438.28917	0.0214883015
1436.85946	0.0214918926
1435.42974	0.0214995351
1434.00003	0.0215149038
1432.57032	0.0215399023
1431.14061	0.0215725731
1429.71090	0.0216056816
1428.28119	0.0216302499
1426.85148	0.0216411874
1425.42177	0.0216431469
1423.99206	0.0216495674
1422.56235	0.0216774028
1421.13264	0.0217372440
1419.70292	0.0218237676
1418.27321	0.0219133589
1416.84350	0.0219779424
1415.41379	0.0220055263
1413.98408	0.0220043287
1412.55437	0.0219922923
1411.12466	0.0219865739
1409.69495	0.0219970308
1408.26524	0.0220242627
1406.83553	0.0220604278
1405.40582	0.0220931396
1403.97610	0.0221109521
1402.54639	0.0221085548
1401.11668	0.0220897067
1399.68697	0.0220655762
1398.25726	0.0220492352
1396.82755	0.0220492631
1395.39784	0.0220644046
1393.96813	0.0220876634
1392.53842	0.0221135132
1391.10871	0.0221417323
1389.67900	0.0221756194
1388.24928	0.0222172216
1386.81957	0.0222638119
1385.38986	0.0223079287
1383.96015	0.0223406833
1382.53044	0.0223570075
1381.10073	0.0223584808
1379.67102	0.0223532468
1378.24131	0.0223534387
1376.81160	0.0223690551
1375.38189	0.0224030148
1373.95218	0.0224470627
1372.52246	0.0224868078
1371.09275	0.0225107186
1369.66304	0.0225165244
1368.23333	0.0225121360
1366.80362	0.0225101728
1365.37391	0.0225216504
1363.94420	0.0225500595
1362.51449	0.0225901157
1361.08478	0.0226324368
1359.65507	0.0226715989
1358.22536	0.0227093473
1356.79565	0.0227506179
1355.36593	0.0227968022
1353.93622	0.0228440817
1352.50651	0.0228856653
1351.07680	0.0229166634
1349.64709	0.0229363125
1348.21738	0.0229469556
1346.78767	0.0229521953
1345.35796	0.0229559075
1343.92825	0.0229636841
1342.49854	0.0229829252
1341.06883	0.0230206996
1339.63911	0.0230810270
1338.20940	0.0231598727
1336.77969	0.0232466273
1335.34998	0.0233283993
1333.92027	0.0233964995
1332.49056	0.0234478880
1331.06085	0.0234851018
1329.63114	0.0235131383
1328.20143	0.0235378146
1326.77172	0.0235654153
1325.34201	0.0236019846
1323.91229	0.0236529876
1322.48258	0.0237212479
1321.05287	0.0238044225
1319.62316	0.0238957889
1318.19345	0.0239869300
1316.76374	0.0240724813
1315.33403	0.0241516437
1313.90432	0.0242263339
1312.47461	0.0242978316
1311.04490	0.0243663583
1309.61519	0.0244324040
1308.18547	0.0244984310
1306.75576	0.0245673191
1305.32605	0.0246399958
1303.89634	0.0247149058
1302.46663	0.0247893631
1301.03692	0.0248622168
1299.60721	0.0249347799
1298.17750	0.0250089187
1296.74779	0.0250841118
1295.31808	0.0251582209
1293.88837	0.0252304208
1292.45865	0.0253042262
1291.02894	0.0253860019
1289.59923	0.0254814085
1288.16952	0.0255884510
1286.73981	0.0256970562
1285.31010	0.0257931910
1283.88039	0.0258672833
1282.45068	0.0259204507
1281.02097	0.0259629060
1279.59126	0.0260070413
1278.16155	0.0260601155
1276.73183	0.0261220746
1275.30212	0.0261895694
1273.87241	0.0262611173
1272.44270	0.0263383165
1271.01299	0.0264214147
1269.58328	0.0265047215
1268.15357	0.0265768450
1266.72386	0.0266275108
1265.29415	0.0266568232
1263.86444	0.0266768634
1262.43473	0.0267060138
1261.00501	0.0267564189
1259.57530	0.0268262718
1258.14559	0.0269012004
1256.71588	0.0269655678
1255.28617	0.0270134415
1253.85646	0.0270504113
1252.42675	0.0270875506
1250.99704	0.0271320213
1249.56733	0.0271835793
1248.13762	0.0272367690
1246.70791	0.0272867680
1245.27819	0.0273326933
1243.84848	0.0273740198
1242.41877	0.0274085104
1240.98906	0.0274306238
1239.55935	0.0274350923
1238.12964	0.0274210572
1236.69993	0.0273930151
1235.27022	0.0273604281
1233.84051	0.0273352843
1232.41080	0.0273282826
1230.98109	0.0273453202
1229.55137	0.0273836683
1228.12166	0.0274323896
1226.69195	0.0274762884
1225.26224	0.0275049135
1223.83253	0.0275173243
1222.40282	0.0275224000
1220.97311	0.0275320522
1219.54340	0.0275531784
1218.11369	0.0275853686
1216.68398	0.0276237391
1215.25427	0.0276647601
1213.82455	0.0277082156
1212.39484	0.0277564190
1210.96513	0.0278099012
1209.53542	0.0278677214
1208.10571	0.0279302429
1206.67600	0.0280010570
1205.24629	0.0280850828
1203.81658	0.0281829629
1202.38687	0.0282890964
1200.95716	0.0283945389
1199.52745	0.0284952521
1198.09774	0.0285967924
1196.66802	0.0287116840
1195.23831	0.0288516693
1193.80860	0.0290210620
1192.37889	0.0292153545
1190.94918	0.0294254962
1189.51947	0.0296426956
1188.08976	0.0298610572
1186.66005	0.0300787538
1185.23034	0.0302968621
1183.80063	0.0305186920
1182.37092	0.0307485256
1180.94120	0.0309892669
1179.51149	0.0312404893
1178.08178	0.0314968675
1176.65207	0.0317500569
1175.22236	0.0319931358
1173.79265	0.0322248675
1172.36294	0.0324500278
1170.93323	0.0326762237
1169.50352	0.0329077356
1168.07381	0.0331445374
1166.64410	0.0333851278
1165.21438	0.0336312503
1163.78467	0.0338882916
1162.35496	0.0341590084
1160.92525	0.0344381593
1159.49554	0.0347130597
1158.06583	0.0349704288
1156.63612	0.0352043174
1155.20641	0.0354187265
1153.77670	0.0356237702
1152.34699	0.0358291082
1150.91728	0.0360407047
1149.48756	0.0362612680
1148.05785	0.0364933982
1146.62814	0.0367412344
1145.19843	0.0370084643
1143.76872	0.0372945033
1142.33901	0.0375924185
1140.90930	0.0378915220
1139.47959	0.0381855778
1138.04988	0.0384790115
1136.62017	0.0387869403
1135.19046	0.0391246267
1133.76074	0.0394966528
1132.33103	0.0398934856
1130.90132	0.0402990058
1129.47161	0.0407019146
1128.04190	0.0411023572
1126.61219	0.0415060446
1125.18248	0.0419158079
1123.75277	0.0423264727
1122.32306	0.0427287295
1120.89335	0.0431173518
1119.46364	0.0434938446
1118.03392	0.0438624769
1116.60421	0.0442236811
1115.17450	0.0445726812
1113.74479	0.0449053682
1112.31508	0.0452256128
1110.88537	0.0455445424
1109.45566	0.0458717309
1108.02595	0.0462037176
1106.59624	0.0465239994
1105.16653	0.0468116216
1103.73682	0.0470568761
1102.30710	0.0472664535
1100.87739	0.0474577658
1099.44768	0.0476446562
1098.01797	0.0478273220
1096.58826	0.0479904041
1095.15855	0.0481123663
1093.72884	0.0481781326
1092.29913	0.0481894389
1090.86942	0.0481655784
1089.43971	0.0481333025
1088.01000	0.0481140986
1086.58028	0.0481155179
1085.15057	0.0481326357
1083.72086	0.0481551103
1082.29115	0.0481737629
1080.86144	0.0481805019
1079.43173	0.0481649414
1078.00202	0.0481142439
1076.57231	0.0480189398
1075.14260	0.0478790551
1073.71289	0.0477053262
1072.28318	0.0475112759
1070.85346	0.0473032817
1069.42375	0.0470750220
1067.99404	0.0468140431
1066.56433	0.0465138853
1065.13462	0.0461831018
1063.70491	0.0458415262
1062.27520	0.0455056168
1060.84549	0.0451756306
1059.41578	0.0448358469
1057.98607	0.0444671363
1056.55636	0.0440614894
1055.12664	0.0436262563
1053.69693	0.0431763306
1052.26722	0.0427243896
1050.83751	0.0422771089
1049.40780	0.0418376438
1047.97809	0.0414088741
1046.54838	0.0409915671
1045.11867	0.0405831262
1043.68896	0.0401785634
1042.25925	0.0397771597
1040.82954	0.0393857323
1039.39983	0.0390156396
1037.97011	0.0386752635
1036.54040	0.0383650437
1035.11069	0.0380791165
1033.68098	0.0378112830
1032.25127	0.0375595056
1030.82156	0.0373247154
1029.39185	0.0371056981
1027.96214	0.0368974730
1026.53243	0.0366937406
1025.10272	0.0364930891
1023.67301	0.0363022126
1022.24329	0.0361335017
1020.81358	0.0359995030
1019.38387	0.0359077752
1017.95416	0.0358616076
1016.52445	0.0358629562
1015.09474	0.0359141566
1013.66503	0.0360169373
1012.23532	0.0361706354
1010.80561	0.0363720953
1009.37590	0.0366165116
1007.94619	0.0368965156
1006.51647	0.0372012630
1005.08676	0.0375189781
1003.65705	0.0378424935
1002.22734	0.0381730013
1000.79763	0.0385151915
999.36792	0.0388678387
997.93821	0.0392176881
996.50850	0.0395460129
995.07879	0.0398401432
993.64908	0.0400989242
992.21937	0.0403251350
990.78965	0.0405125618
989.35994	0.0406427309
987.93023	0.0406941846
986.50052	0.0406569988
985.07081	0.0405377671
983.64110	0.0403536558
982.21139	0.0401219763
980.78168	0.0398553498
979.35197	0.0395638756
977.92226	0.0392570719
976.49255	0.0389436036
975.06283	0.0386280380
973.63312	0.0383080393
972.20341	0.0379765257
970.77370	0.0376264304
969.34399	0.0372575000
967.91428	0.0368789025
966.48457	0.0365073383
965.05486	0.0361593254
963.62515	0.0358446538
962.19544	0.0355648808
960.76573	0.0353181921
959.33601	0.0351047292
957.90630	0.0349268615
956.47659	0.0347831920
955.04688	0.0346657857
953.61717	0.0345638581
952.18746	0.0344715901
950.75775	0.0343915038
949.32804	0.0343300328
947.89833	0.0342895836
946.46862	0.0342649333
945.03891	0.0342472009
943.60919	0.0342297517
942.17948	0.0342109874
940.74977	0.0341928080
939.32006	0.0341772363
937.89035	0.0341667086
936.46064	0.0341644958
935.03093	0.0341747180
933.60122	0.0341988578
932.17151	0.0342330001
930.74180	0.0342670046
929.31209	0.0342879556
927.88237	0.0342852697
926.45266	0.0342537835
925.02295	0.0341942087
923.59324	0.0341115966
922.16353	0.0340134092
920.73382	0.0339076854
919.30411	0.0338029675
917.87440	0.0337075889
916.44469	0.0336291827
915.01498	0.0335744768
913.58527	0.0335465111
912.15555	0.0335426219
910.72584	0.0335546210
909.29613	0.0335726030
907.86642	0.0335892700
906.43671	0.0336028636
905.00700	0.0336164013
903.57729	0.0336349458
902.14758	0.0336652659
900.71787	0.0337179117
899.28816	0.0338064656
897.85845	0.0339427553
896.42873	0.0341299661
894.99902	0.0343570709
893.56931	0.0346012488
892.13960	0.0348361731
890.70989	0.0350405201
889.28018	0.0352065079
887.85047	0.0353417769
886.42076	0.0354677923
884.99105	0.0356102251
883.56134	0.0357860141
882.13163	0.0359947495
880.70192	0.0362193398
879.27220	0.0364367850
877.84249	0.0366294123
876.41278	0.0367904529
874.98307	0.0369215980
873.55336	0.0370280556
872.12365	0.0371175967
870.69394	0.0371988639
869.26423	0.0372795835
867.83452	0.0373635627
866.40481	0.0374501497
864.97510	0.0375371836
863.54538	0.0376224518
862.11567	0.0377003960
860.68596	0.0377587602
859.25625	0.0377802216
857.82654	0.0377526060
856.39683	0.0376789682
854.96712	0.0375768654
853.53741	0.0374681279
852.10770	0.0373675674
850.67799	0.0372801460
849.24828	0.0372053236
847.81856	0.0371403508
846.38885	0.0370772779
844.95914	0.0370004028
843.52943	0.0368911028
842.09972	0.0367390402
840.67001	0.0365498550
839.24030	0.0363408811
837.81059	0.0361287743
836.38088	0.0359212719
834.95117	0.0357188396
833.52146	0.0355252661
832.09174	0.0353531241
830.66203	0.0352194756
829.23232	0.0351338349
827.80261	0.0350913703
826.37290	0.0350731313
824.94319	0.0350550003
823.51348	0.0350188017
822.08377	0.0349598527
820.65406	0.0348888226
819.22435	0.0348245054
817.79464	0.0347807519
816.36492	0.0347547568
814.93521	0.0347259305
813.50550	0.0346702710
812.07579	0.0345812626
810.64608	0.0344787352
809.21637	0.0343966596
807.78666	0.0343576036
806.35695	0.0343541577
804.92724	0.0343558379
803.49753	0.0343342908
802.06782	0.0342867263
800.63810	0.0342370607
799.20839	0.0342147946
797.77868	0.0342326649
796.34897	0.0342801437
794.91926	0.0343350768
793.48955	0.0343834050
792.05984	0.0344264172
790.63013	0.0344752073
789.20042	0.0345373973
787.77071	0.0346093811
786.34100	0.0346769467
784.91128	0.0347233489
783.48157	0.0347377919
782.05186	0.0347202942
780.62215	0.0346815139
779.19244	0.0346375816
777.76273	0.0346040539
776.33302	0.0345917754
774.90331	0.0346035473
773.47360	0.0346329845
772.04389	0.0346638523
770.61418	0.0346735790
769.18446	0.0346431322
767.75475	0.0345703326
766.32504	0.0344780907
764.89533	0.0344069414
763.46562	0.0343960710
762.03591	0.0344620608
760.60620	0.0345896184
759.17649	0.0347405970
757.74678	0.0348727219
756.31707	0.0349570177
754.88736	0.0349863097
753.45764	0.0349742733
752.02793	0.0349475667
750.59822	0.0349360332
749.16851	0.0349615663
747.73880	0.0350306705
746.30909	0.0351291485
744.87938	0.0352274776
743.44967	0.0352941006
742.01996	0.0353133343
740.59025	0.0352964029
739.16054	0.0352749527
737.73082	0.0352801159
736.30111	0.0353219807
734.87140	0.0353845730
733.44169	0.0354403220
732.01198	0.0354701243
730.58227	0.0354730450
729.15256	0.0354622900
727.72285	0.0354570374
726.29314	0.0354738049
724.86343	0.0355235264
723.43372	0.0356062092
722.00401	0.0357083008
720.57429	0.0358073227
719.14458	0.0358840451
717.71487	0.0359355807
716.28516	0.0359758772
714.85545	0.0360228457
713.42574	0.0360859334
711.99603	0.0361619443
710.56632	0.0362409204
709.13661	0.0363127925
707.70690	0.0363708027
706.27719	0.0364118703
704.84747	0.0364377126
703.41776	0.0364564322
701.98805	0.0364826433
700.55834	0.0365294963
699.12863	0.0366006568
697.69892	0.0366837718
696.26921	0.0367546752
694.83950	0.0367891565
693.40979	0.0367781706
691.98008	0.0367354900
690.55037	0.0366936289
689.12065	0.0366888680
687.69094	0.0367423631
686.26123	0.0368491448
684.83152	0.0369817987
683.40181	0.0371045135
681.97210	0.0371886566
680.54239	0.0372215398
679.11268	0.0372069031
677.68297	0.0371574946
676.25326	0.0370887555
674.82355	0.0370131172
673.39383	0.0369409882
671.96412	0.0368877500
670.53441	0.0368792117
669.10470	0.0369423404
667.67499	0.0370758995
666.24528	0.0372350775
664.81557	0.0373673700
663.38586	0.0374524370
661.95615	0.0374979824
660.52644	0.0375197120
659.09673	0.0375288278
657.66701	0.0375308022
656.23730	0.0375322141
654.80759	0.0375451967
653.37788	0.0375839211
651.94817	0.0376549996
650.51846	0.0377516709
649.08875	0.0378587320
647.65904	0.0379643477
646.22933	0.0380650721
644.79962	0.0381590687
643.36991	0.0382344797
641.94019	0.0382667370
640.51048	0.0382339433
639.08077	0.0381405279
637.65106	0.0380294994
636.22135	0.0379665792
634.79164	0.0380032212
633.36193	0.0381418839
631.93222	0.0383288786
630.50251	0.0384787284
629.07280	0.0385126732
627.64309	0.0383908302
626.21337	0.0381308608
624.78366	0.0378095917
623.35395	0.0375391841
621.92424	0.0374213420
620.49453	0.0374971628
619.06482	0.0377296470
617.63511	0.0380275510
616.20540	0.0382901728
614.77569	0.0384439416
613.34598	0.0384608544
611.91627	0.0383621864
610.48655	0.0382130817
609.05684	0.0380949154
607.62713	0.0380628407
606.19742	0.0381105430
604.76771	0.0381782874
603.33800	0.0382018611
601.90829	0.0381679125
600.47858	0.0381273851
599.04887	0.0381573141
