3997.47168	0.0679662749
3996.04197	0.0679363981
3994.61226	0.0679002553
3993.18255	0.0678607300
3991.75284	0.0678227842
3990.32312	0.0677938834
3988.89341	0.0677820221
3987.46370	0.0677894056
3986.03399	0.0678094104
3984.60428	0.0678308308
3983.17457	0.0678474158
3981.74486	0.0678626075
3980.31515	0.0678839162
3978.88544	0.0679116398
3977.45573	0.0679359138
3976.02602	0.0679460540
3974.59630	0.0679443255
3973.16659	0.0679466277
3971.73688	0.0679669082
3970.30717	0.0680005401
3968.87746	0.0680233687
3967.44775	0.0680110157
3966.01804	0.0679590106
3964.58833	0.0678878501
3963.15862	0.0678285584
3961.72891	0.0678033531
3960.29920	0.0678164586
3958.86948	0.0678568855
3957.43977	0.0679082498
3956.01006	0.0679533780
3954.58035	0.0679755062
3953.15064	0.0679597929
3951.72093	0.0679009259
3950.29122	0.0678094700
3948.86151	0.0677099824
3947.43180	0.0676297545
3946.00209	0.0675851777
3944.57238	0.0675783679
3943.14266	0.0676033795
3941.71295	0.0676558018
3940.28324	0.0677333102
3938.85353	0.0678317398
3937.42382	0.0679378808
3935.99411	0.0680308193
3934.56440	0.0680891052
3933.13469	0.0680998787
3931.70498	0.0680655763
3930.27527	0.0680005103
3928.84556	0.0679218695
3927.41585	0.0678411797
3925.98613	0.0677642301
3924.55642	0.0676920712
3923.12671	0.0676244646
3921.69700	0.0675637051
3920.26729	0.0675182194
3918.83758	0.0675042793
3917.40787	0.0675385073
3915.97816	0.0676218644
3914.54845	0.0677324012
3913.11874	0.0678318590
3911.68903	0.0678849742
3910.25931	0.0678732023
3908.82960	0.0677983016
3907.39989	0.0676779449
3905.97018	0.0675383285
3904.54047	0.0674093068
3903.11076	0.0673207045
3901.68105	0.0672937706
3900.25134	0.0673296228
3898.82163	0.0674040765
3897.39192	0.0674825981
3895.96221	0.0675396323
3894.53249	0.0675704181
3893.10278	0.0675925240
3891.67307	0.0676347464
3890.24336	0.0677155778
3888.81365	0.0678256899
3887.38394	0.0679310709
3885.95423	0.0679948851
3884.52452	0.0680006668
3883.09481	0.0679604635
3881.66510	0.0679038316
3880.23539	0.0678540468
3878.80567	0.0678111613
3877.37596	0.0677559376
3875.94625	0.0676692352
3874.51654	0.0675501227
3873.08683	0.0674246624
3871.65712	0.0673361495
3870.22741	0.0673158690
3868.79770	0.0673575550
3867.36799	0.0674253628
3865.93828	0.0674883127
3864.50857	0.0675404444
3863.07885	0.0675902888
3861.64914	0.0676357746
3860.21943	0.0676514432
3858.78972	0.0675976351
3857.36001	0.0674434751
3855.93030	0.0672030821
3854.50059	0.0669790134
3853.07088	0.0669347942
3851.64117	0.0671359375
3850.21146	0.0674733445
3848.78175	0.0677954853
3847.35203	0.0680140778
3845.92232	0.0681020916
3844.49261	0.0680686012
3843.06290	0.0679497197
3841.63319	0.0678033233
3840.20348	0.0676933452
3838.77377	0.0676614568
3837.34406	0.0677036270
3835.91435	0.0677821413
3834.48464	0.0678607896
3833.05493	0.0679289177
3831.62521	0.0679932162
3830.19550	0.0680570677
3828.76579	0.0681100264
3827.33608	0.0681320727
3825.90637	0.0681074187
3824.47666	0.0680331513
3823.04695	0.0679249540
3821.61724	0.0678147897
3820.18753	0.0677439570
3818.75782	0.0677478015
3817.32811	0.0678377599
3815.89839	0.0679945201
3814.46868	0.0681768954
3813.03897	0.0683400109
3811.60926	0.0684494004
3810.17955	0.0684850067
3808.74984	0.0684447661
3807.32013	0.0683455914
3805.89042	0.0682226866
3804.46071	0.0681167766
3803.03100	0.0680597052
3801.60129	0.0680681467
3800.17157	0.0681465492
3798.74186	0.0682894215
3797.31215	0.0684803724
3795.88244	0.0686947256
3794.45273	0.0689045191
3793.02302	0.0690833554
3791.59331	0.0692118481
3790.16360	0.0692815259
3788.73389	0.0693007708
3787.30418	0.0692944601
3785.87447	0.0692930594
3784.44475	0.0693140700
3783.01504	0.0693514869
3781.58533	0.0693847090
3780.15562	0.0694011077
3778.72591	0.0694052428
3777.29620	0.0694089457
3775.86649	0.0694128051
3774.43678	0.0694037527
3773.00707	0.0693695247
3771.57736	0.0693141371
3770.14765	0.0692613348
3768.71794	0.0692409277
3767.28822	0.0692663714
3765.85851	0.0693237931
3764.42880	0.0693820044
3762.99909	0.0694141984
3761.56938	0.0694116205
3760.13967	0.0693852827
3758.70996	0.0693522170
3757.28025	0.0693143457
3755.85054	0.0692548379
3754.42083	0.0691589639
3752.99112	0.0690440536
3751.56140	0.0689656213
3750.13169	0.0689763278
3748.70198	0.0690778047
3747.27227	0.0692323372
3745.84256	0.0694223121
3744.41285	0.0696626231
3742.98314	0.0699534342
3741.55343	0.0702466220
3740.12372	0.0704705864
3738.69401	0.0705709234
3737.26430	0.0705378503
3735.83458	0.0704216957
3734.40487	0.0703215525
3732.97516	0.0703156739
3731.54545	0.0704032779
3730.11574	0.0705283210
3728.68603	0.0706383213
3727.25632	0.0707149580
3725.82661	0.0707757995
3724.39690	0.0708581582
3722.96719	0.0709897950
3721.53748	0.0711651668
3720.10776	0.0713502839
3718.67805	0.0715059638
3717.24834	0.0716043636
3715.81863	0.0716336444
3714.38892	0.0716037527
3712.95921	0.0715601370
3711.52950	0.0715771988
3710.09979	0.0717055127
3708.67008	0.0719207898
3707.24037	0.0721525922
3705.81066	0.0723559856
3704.38094	0.0725392848
3702.95123	0.0727453083
3701.52152	0.0730131939
3700.09181	0.0733457580
3698.66210	0.0737070069
3697.23239	0.0740483925
3695.80268	0.0743360966
3694.37297	0.0745653808
3692.94326	0.0747642815
3691.51355	0.0749861598
3690.08384	0.0752791017
3688.65412	0.0756425858
3687.22441	0.0760239139
3685.79470	0.0763720945
3684.36499	0.0766704828
3682.93528	0.0769273341
3681.50557	0.0771576464
3680.07586	0.0773855448
3678.64615	0.0776529983
3677.21644	0.0780100152
3675.78673	0.0784797668
3674.35702	0.0790378898
3672.92730	0.0796512514
3671.49759	0.0803272873
3670.06788	0.0810966641
3668.63817	0.0819583386
3667.20846	0.0828679651
3665.77875	0.0837758929
3664.34904	0.0846583173
3662.91933	0.0855113044
3661.48962	0.0863326862
3660.05991	0.0871193334
3658.63020	0.0878781900
3657.20048	0.0886279568
3655.77077	0.0893830284
3654.34106	0.0901455060
3652.91135	0.0909261033
3651.48164	0.0917784572
3650.05193	0.0927923322
3648.62222	0.0940093547
3647.19251	0.0953509435
3645.76280	0.0966910645
3644.33309	0.0979738012
3642.90338	0.0992140695
3641.47366	0.1004411578
3640.04395	0.1016684175
3638.61424	0.1028905958
3637.18453	0.1040901989
3635.75482	0.1052423641
3634.32511	0.1063301563
3632.89540	0.1073780581
3631.46569	0.1084759086
3630.03598	0.1097421870
3628.60627	0.1112066731
3627.17656	0.1127428934
3625.74684	0.1141856685
3624.31713	0.1154762954
3622.88742	0.1166637763
3621.45771	0.1178323776
3620.02800	0.1190454960
3618.59829	0.1203204021
3617.16858	0.1216314360
3615.73887	0.1229380891
3614.30916	0.1242169440
3612.87945	0.1254791170
3611.44974	0.1267640442
3610.02003	0.1281071752
3608.59031	0.1295025796
3607.16060	0.1309006214
3605.73089	0.1322516948
3604.30118	0.1335419863
3602.87147	0.1347874850
3601.44176	0.1360066682
3600.01205	0.1372094601
3598.58234	0.1384053081
3597.15263	0.1396078169
3595.72292	0.1408198923
3594.29321	0.1420255601
3592.86349	0.1432097107
3591.43378	0.1443907022
3590.00407	0.1456190348
3588.57436	0.1469355226
3587.14465	0.1483219266
3585.71494	0.1497075558
3584.28523	0.1510316730
3582.85552	0.1522842944
3581.42581	0.1534898579
3579.99610	0.1546769589
3578.56639	0.1558658481
3577.13667	0.1570640802
3575.70696	0.1582601964
3574.27725	0.1594246030
3572.84754	0.1605337262
3571.41783	0.1616012901
3569.98812	0.1626870185
3568.55841	0.1638636589
3567.12870	0.1651585251
3565.69899	0.1665229201
3564.26928	0.1678760797
3562.83957	0.1691734940
3561.40985	0.1704196185
3559.98014	0.1716398448
3558.55043	0.1728591472
3557.12072	0.1740952581
3555.69101	0.1753551662
3554.26130	0.1766295582
3552.83159	0.1778973192
3551.40188	0.1791410297
3549.97217	0.1803587526
3548.54246	0.1815620363
3547.11275	0.1827629507
3545.68303	0.1839673519
3544.25332	0.1851762682
3542.82361	0.1863878965
3541.39390	0.1875958294
3539.96419	0.1887913048
3538.53448	0.1899705976
3537.10477	0.1911364049
3535.67506	0.1922898442
3534.24535	0.1934230626
3532.81564	0.1945253611
3531.38593	0.1955987662
3529.95621	0.1966622174
3528.52650	0.1977392435
3527.09679	0.1988407373
3525.66708	0.1999648660
3524.23737	0.2011057436
3522.80766	0.2022567093
3521.37795	0.2034020573
3519.94824	0.2045175731
3518.51853	0.2055865228
3517.08882	0.2066126317
3515.65911	0.2076179087
3514.22939	0.2086268961
3512.79968	0.2096554041
3511.36997	0.2107092142
3509.94026	0.2117823362
3508.51055	0.2128540426
3507.08084	0.2138972282
3505.65113	0.2149008960
3504.22142	0.2158819139
3502.79171	0.2168705463
3501.36200	0.2178765088
3499.93229	0.2188772857
3498.50257	0.2198426425
3497.07286	0.2207677364
3495.64315	0.2216755003
3494.21344	0.2225917727
3492.78373	0.2235234082
3491.35402	0.2244589180
3489.92431	0.2253836542
3488.49460	0.2262879610
3487.06489	0.2271661162
3485.63518	0.2280206680
3484.20547	0.2288670838
3482.77575	0.2297292948
3481.34604	0.2306209505
3479.91633	0.2315338254
3478.48662	0.2324467003
3477.05691	0.2333429009
3475.62720	0.2342160642
3474.19749	0.2350604981
3472.76778	0.2358688861
3471.33807	0.2366411537
3469.90836	0.2373934686
3468.47865	0.2381484807
3467.04893	0.2389165014
3465.61922	0.2396889627
3464.18951	0.2404490560
3462.75980	0.2411829978
3461.33009	0.2418818772
3459.90038	0.2425395101
3458.47067	0.2431575507
3457.04096	0.2437530458
3455.61125	0.2443512827
3454.18154	0.2449672669
3452.75183	0.2455940098
3451.32212	0.2462133020
3449.89240	0.2468120903
3448.46269	0.2473904938
3447.03298	0.2479556352
3445.60327	0.2485153675
3444.17356	0.2490787506
3442.74385	0.2496537864
3441.31414	0.2502374053
3439.88443	0.2508126199
3438.45472	0.2513596714
3437.02501	0.2518743277
3435.59530	0.2523724437
3434.16558	0.2528739870
3432.73587	0.2533860207
3431.30616	0.2539010942
3429.87645	0.2544086874
3428.44674	0.2549026906
3427.01703	0.2553797662
3425.58732	0.2558386624
3424.15761	0.2562841177
3422.72790	0.2567273378
3421.29819	0.2571746409
3419.86848	0.2576169670
3418.43876	0.2580322325
3417.00905	0.2584044933
3415.57934	0.2587357163
3414.14963	0.2590410709
3412.71992	0.2593333125
3411.29021	0.2596172094
3409.86050	0.2598943412
3408.43079	0.2601680458
3407.00108	0.2604407370
3405.57137	0.2607097924
3404.14166	0.2609696984
3402.71194	0.2612185180
3401.28223	0.2614603937
3399.85252	0.2617023587
3398.42281	0.2619481385
3396.99310	0.2621968091
3395.56339	0.2624408007
3394.13368	0.2626643777
3392.70397	0.2628509700
3391.27426	0.2629945278
3389.84455	0.2631096542
3388.41484	0.2632269859
3386.98512	0.2633758783
3385.55541	0.2635688186
3384.12570	0.2637986541
3382.69599	0.2640475631
3381.26628	0.2642951608
3379.83657	0.2645249963
3378.40686	0.2647284865
3376.97715	0.2649109662
3375.54744	0.2650894225
3374.11773	0.2652810812
3372.68802	0.2654885054
3371.25830	0.2656968236
3369.82859	0.2658843398
3368.39888	0.2660393715
3366.96917	0.2661651969
3365.53946	0.2662761509
3364.10975	0.2663829625
3362.68004	0.2664841712
3361.25033	0.2665698230
3359.82062	0.2666361928
3358.39091	0.2667029202
3356.96120	0.2668120563
3355.53148	0.2670029104
3354.10177	0.2672776580
3352.67206	0.2675887346
3351.24235	0.2678664029
3349.81264	0.2680658102
3348.38293	0.2681968808
3346.95322	0.2683140039
3345.52351	0.2684753835
3344.09380	0.2687053084
3342.66409	0.2689839602
3341.23438	0.2692637444
3339.80466	0.2694972754
3338.37495	0.2696583569
3336.94524	0.2697522044
3335.51553	0.2698138058
3334.08582	0.2698941827
3332.65611	0.2700402737
3331.22640	0.2702766359
3329.79669	0.2705948651
3328.36698	0.2709567845
3326.93727	0.2713096738
3325.50756	0.2716109753
3324.07784	0.2718508244
3322.64813	0.2720592022
3321.21842	0.2722888291
3319.78871	0.2725872993
3318.35900	0.2729731500
3316.92929	0.2734366357
3315.49958	0.2739538550
3314.06987	0.2745046318
3312.64016	0.2750755250
3311.21045	0.2756493986
3309.78074	0.2761949599
3308.35102	0.2766683996
3306.92131	0.2770317495
3305.49160	0.2772764564
3304.06189	0.2774362564
3302.63218	0.2775757313
3301.20247	0.2777569890
3299.77276	0.2780054510
3298.34305	0.2782958746
3296.91334	0.2785673141
3295.48363	0.2787557840
3294.05392	0.2788217962
3292.62421	0.2787608206
3291.19449	0.2785983980
3289.76478	0.2783748507
3288.33507	0.2781261206
3286.90536	0.2778677046
3285.47565	0.2775887549
3284.04594	0.2772624493
3282.61623	0.2768658996
3281.18652	0.2763952613
3279.75681	0.2758682668
3278.32710	0.2753119469
3276.89739	0.2747463286
3275.46767	0.2741687000
3274.03796	0.2735500932
3272.60825	0.2728412151
3271.17854	0.2719936371
3269.74883	0.2709837854
3268.31912	0.2698288560
3266.88941	0.2685837150
3265.45970	0.2673203349
3264.02999	0.2660993040
3262.60028	0.2649503648
3261.17057	0.2638683021
3259.74085	0.2628229856
3258.31114	0.2617787421
3256.88143	0.2607144117
3255.45172	0.2596347630
3254.02201	0.2585662305
3252.59230	0.2575376332
3251.16259	0.2565594614
3249.73288	0.2556161582
3248.30317	0.2546780109
3246.87346	0.2537230849
3245.44375	0.2527510226
3244.01403	0.2517831326
3242.58432	0.2508486807
3241.15461	0.2499710023
3239.72490	0.2491602600
3238.29519	0.2484125197
3236.86548	0.2477135658
3235.43577	0.2470416874
3234.00606	0.2463714927
3232.57635	0.2456810921
3231.14664	0.2449596673
3229.71693	0.2442147583
3228.28721	0.2434723675
3226.85750	0.2427651733
3225.42779	0.2421156913
3223.99808	0.2415218055
3222.56837	0.2409594655
3221.13866	0.2403965890
3219.70895	0.2398106158
3218.27924	0.2391973734
3216.84953	0.2385648936
3215.41982	0.2379233092
3213.99011	0.2372790128
3212.56039	0.2366348207
3211.13068	0.2359941155
3209.70097	0.2353625149
3208.27126	0.2347436398
3206.84155	0.2341348380
3205.41184	0.2335263491
3203.98213	0.2329053581
3202.55242	0.2322625667
3201.12271	0.2315958142
3199.69300	0.2309090942
3198.26329	0.2302089632
3196.83357	0.2295019925
3195.40386	0.2287954837
3193.97415	0.2280968130
3192.54444	0.2274083644
3191.11473	0.2267209142
3189.68502	0.2260161936
3188.25531	0.2252780199
3186.82560	0.2245070189
3185.39589	0.2237232476
3183.96618	0.2229540050
3182.53647	0.2222171128
3181.10675	0.2215141058
3179.67704	0.2208347917
3178.24733	0.2201637179
3176.81762	0.2194838524
3175.38791	0.2187767327
3173.95820	0.2180292755
3172.52849	0.2172423303
3171.09878	0.2164336294
3169.66907	0.2156274170
3168.23936	0.2148407847
3166.80965	0.2140746415
3165.37993	0.2133199871
3163.95022	0.2125676721
3162.52051	0.2118162662
3161.09080	0.2110726833
3159.66109	0.2103475183
3158.23138	0.2096478492
3156.80167	0.2089707851
3155.37196	0.2082992196
3153.94225	0.2076073885
3152.51254	0.2068748474
3151.08283	0.2060998529
3149.65311	0.2053022385
3148.22340	0.2045140415
3146.79369	0.2037637681
3145.36398	0.2030652016
3143.93427	0.2024140358
3142.50456	0.2017909586
3141.07485	0.2011672407
3139.64514	0.2005162835
3138.21543	0.1998252422
3136.78572	0.1991039962
3135.35601	0.1983797997
3133.92629	0.1976812929
3132.49658	0.1970206350
3131.06687	0.1963898093
3129.63716	0.1957718134
3128.20745	0.1951575279
3126.77774	0.1945544779
3125.34803	0.1939790547
3123.91832	0.1934433579
3122.48861	0.1929445118
3121.05890	0.1924648732
3119.62919	0.1919816583
3118.19948	0.1914772093
3116.76976	0.1909473985
3115.34005	0.1904016882
3113.91034	0.1898567975
3112.48063	0.1893252581
3111.05092	0.1888078600
3109.62121	0.1882947385
3108.19150	0.1877768487
3106.76179	0.1872558743
3105.33208	0.1867448539
3103.90237	0.1862564683
3102.47266	0.1857907921
3101.04294	0.1853353232
3099.61323	0.1848776489
3098.18352	0.1844188571
3096.75381	0.1839744002
3095.32410	0.1835621893
3093.89439	0.1831896454
3092.46468	0.1828481704
3091.03497	0.1825197041
3089.60526	0.1821854115
3088.17555	0.1818328053
3086.74584	0.1814581603
3085.31612	0.1810657382
3083.88641	0.1806621253
3082.45670	0.1802485734
3081.02699	0.1798148602
3079.59728	0.1793428510
3078.16757	0.1788194925
3076.73786	0.1782519221
3075.30815	0.1776710749
3073.87844	0.1771186292
3072.44873	0.1766232997
3071.01902	0.1761816144
3069.58930	0.1757577211
3068.15959	0.1753026098
3066.72988	0.1747820824
3065.30017	0.1741941422
3063.87046	0.1735674441
3062.44075	0.1729398221
3061.01104	0.1723363847
3059.58133	0.1717581451
3058.15162	0.1711865216
3056.72191	0.1705974787
3055.29220	0.1699745506
3053.86248	0.1693163365
3052.43277	0.1686351150
3051.00306	0.1679518372
3049.57335	0.1672870517
3048.14364	0.1666527689
3046.71393	0.1660447866
3045.28422	0.1654447466
3043.85451	0.1648296565
3042.42480	0.1641880274
3040.99509	0.1635277718
3039.56538	0.1628722847
3038.13566	0.1622415483
3036.70595	0.1616358459
3035.27624	0.1610346586
3033.84653	0.1604136378
3032.41682	0.1597643644
3030.98711	0.1591012031
3029.55740	0.1584473550
3028.12769	0.1578175873
3026.69798	0.1572104692
3025.26827	0.1566170007
3023.83856	0.1560337394
3022.40884	0.1554661989
3020.97913	0.1549227536
3019.54942	0.1544055343
3018.11971	0.1539074928
3016.69000	0.1534163654
3015.26029	0.1529214382
3013.83058	0.1524193287
3012.40087	0.1519153267
3010.97116	0.1514208019
3009.54145	0.1509463936
3008.11174	0.1504969895
3006.68202	0.1500711739
3005.25231	0.1496682465
3003.82260	0.1492954642
3002.39289	0.1489693820
3000.96318	0.1487081200
2999.53347	0.1485202610
2998.10376	0.1483999193
2996.67405	0.1483291835
2995.24434	0.1482864171
2993.81463	0.1482547671
2992.38492	0.1482270509
2990.95520	0.1482093185
2989.52549	0.1482206881
2988.09578	0.1482884288
2986.66607	0.1484371126
2985.23636	0.1486753821
2983.80665	0.1489888132
2982.37694	0.1493461728
2980.94723	0.1497155577
2979.51752	0.1500812620
2978.08781	0.1504485309
2976.65810	0.1508349031
2975.22838	0.1512528807
2973.79867	0.1517003924
2972.36896	0.1521606892
2970.93925	0.1526117027
2969.50954	0.1530332863
2968.07983	0.1534088105
2966.65012	0.1537217647
2965.22041	0.1539523602
2963.79070	0.1540785432
2962.36099	0.1540800184
2960.93128	0.1539438069
2959.50157	0.1536671221
2958.07185	0.1532572955
2956.64214	0.1527290642
2955.21243	0.1521027535
2953.78272	0.1514090598
2952.35301	0.1506928802
2950.92330	0.1500128508
2949.49359	0.1494263262
2948.06388	0.1489700377
2946.63417	0.1486468762
2945.20446	0.1484342366
2943.77475	0.1483050734
2942.34503	0.1482471973
2940.91532	0.1482643783
2939.48561	0.1483618170
2938.05590	0.1485289484
2936.62619	0.1487353146
2935.19648	0.1489399374
2933.76677	0.1491029859
2932.33706	0.1491936594
2930.90735	0.1491898745
2929.47764	0.1490775794
2928.04793	0.1488541961
2926.61821	0.1485319287
2925.18850	0.1481343210
2923.75879	0.1476820707
2922.32908	0.1471766382
2920.89937	0.1465932429
2919.46966	0.1458929926
2918.03995	0.1450461894
2916.61024	0.1440515369
2915.18053	0.1429385394
2913.75082	0.1417560279
2912.32111	0.1405560523
2910.89139	0.1393836737
2909.46168	0.1382730752
2908.03197	0.1372459978
2906.60226	0.1363104880
2905.17255	0.1354627162
2903.74284	0.1346941143
2902.31313	0.1339982003
2900.88342	0.1333716512
2899.45371	0.1328082234
2898.02400	0.1322926879
2896.59429	0.1318029463
2895.16457	0.1313198209
2893.73486	0.1308371276
2892.30515	0.1303645670
2890.87544	0.1299231201
2889.44573	0.1295364797
2888.01602	0.1292240918
2886.58631	0.1289972365
2885.15660	0.1288569570
2883.72689	0.1287960112
2882.29718	0.1288017333
2880.86747	0.1288581491
2879.43775	0.1289426088
2878.00804	0.1290211976
2876.57833	0.1290465742
2875.14862	0.1289682835
2873.71891	0.1287492514
2872.28920	0.1283794641
2870.85949	0.1278781295
2869.42978	0.1272838712
2868.00007	0.1266412884
2866.57036	0.1259934008
2865.14065	0.1253781617
2863.71093	0.1248263717
2862.28122	0.1243553832
2860.85151	0.1239632443
2859.42180	0.1236274019
2857.99209	0.1233121082
2856.56238	0.1229810342
2855.13267	0.1226048619
2853.70296	0.1221604124
2852.27325	0.1216257811
2850.84354	0.1209782436
2849.41383	0.1202019230
2847.98411	0.1193032190
2846.55440	0.1183211878
2845.12469	0.1173230484
2843.69498	0.1163833439
2842.26527	0.1155567095
2840.83556	0.1148617268
2839.40585	0.1142824516
2837.97614	0.1137852073
2836.54643	0.1133353785
2835.11672	0.1129076704
2833.68701	0.1124887615
2832.25729	0.1120769978
2830.82758	0.1116813868
2829.39787	0.1113159060
2827.96816	0.1109909043
2826.53845	0.1107051596
2825.10874	0.1104459018
2823.67903	0.1101967171
2822.24932	0.1099462956
2820.81961	0.1096920967
2819.38990	0.1094361395
2817.96019	0.1091799065
2816.53047	0.1089236960
2815.10076	0.1086680591
2813.67105	0.1084129065
2812.24134	0.1081554517
2810.81163	0.1078894511
2809.38192	0.1076081246
2807.95221	0.1073112041
2806.52250	0.1070088297
2805.09279	0.1067193300
2803.66308	0.1064597666
2802.23337	0.1062359959
2800.80366	0.1060393974
2799.37394	0.1058517769
2797.94423	0.1056568101
2796.51452	0.1054487601
2795.08481	0.1052316427
2793.65510	0.1050103456
2792.22539	0.1047815531
2790.79568	0.1045352966
2789.36597	0.1042639315
2787.93626	0.1039711982
2786.50655	0.1036710665
2785.07684	0.1033789963
2783.64712	0.1031058282
2782.21741	0.1028572023
2780.78770	0.1026366204
2779.35799	0.1024445668
2777.92828	0.1022727415
2776.49857	0.1021007225
2775.06886	0.1019042209
2773.63915	0.1016691402
2772.20944	0.1014020443
2770.77973	0.1011267528
2769.35002	0.1008696258
2767.92030	0.1006442755
2766.49059	0.1004462168
2765.06088	0.1002600193
2763.63117	0.1000716165
2762.20146	0.0998753160
2760.77175	0.0996735319
2759.34204	0.0994697660
2757.91233	0.0992652103
2756.48262	0.0990593210
2755.05291	0.0988535658
2753.62320	0.0986508280
2752.19348	0.0984511375
2750.76377	0.0982472971
2749.33406	0.0980281681
2747.90435	0.0977870673
2746.47464	0.0975295082
2745.04493	0.0972713307
2743.61522	0.0970295221
2742.18551	0.0968124941
2740.75580	0.0966157168
2739.32609	0.0964258835
2737.89638	0.0962275714
2736.46666	0.0960119516
2735.03695	0.0957817435
2733.60724	0.0955503061
2732.17753	0.0953353420
2730.74782	0.0951470956
2729.31811	0.0949820057
2727.88840	0.0948232487
2726.45869	0.0946507081
2725.02898	0.0944521427
2723.59927	0.0942285210
2722.16956	0.0939908400
2720.73984	0.0937508792
2719.31013	0.0935141966
2717.88042	0.0932797939
2716.45071	0.0930452943
2715.02100	0.0928137749
2713.59129	0.0925929844
2712.16158	0.0923894346
2710.73187	0.0922008604
2709.30216	0.0920161158
2707.87245	0.0918231606
2706.44274	0.0916170627
2705.01302	0.0914015472
2703.58331	0.0911837667
2702.15360	0.0909689069
2700.72389	0.0907594785
2699.29418	0.0905572996
2697.86447	0.0903645158
2696.43476	0.0901798829
2695.00505	0.0899977088
2693.57534	0.0898105577
2692.14563	0.0896158144
2690.71592	0.0894183964
2689.28620	0.0892276764
2687.85649	0.0890524238
2686.42678	0.0888979509
2684.99707	0.0887651220
2683.56736	0.0886513516
2682.13765	0.0885488242
2680.70794	0.0884448513
2679.27823	0.0883250460
2677.84852	0.0881785676
2676.41881	0.0880024657
2674.98910	0.0878013447
2673.55938	0.0875839368
2672.12967	0.0873605907
2670.69996	0.0871419832
2669.27025	0.0869377181
2667.84054	0.0867535844
2666.41083	0.0865882933
2664.98112	0.0864337832
2663.55141	0.0862789378
2662.12170	0.0861165822
2660.69199	0.0859470218
2659.26228	0.0857772231
2657.83256	0.0856158659
2656.40285	0.0854676515
2654.97314	0.0853312388
2653.54343	0.0852010772
2652.11372	0.0850716159
2650.68401	0.0849405527
2649.25430	0.0848095641
2647.82459	0.0846828893
2646.39488	0.0845641419
2644.96517	0.0844553113
2643.53546	0.0843558982
2642.10575	0.0842631385
2640.67603	0.0841715336
2639.24632	0.0840731934
2637.81661	0.0839600563
2636.38690	0.0838278830
2634.95719	0.0836796835
2633.52748	0.0835259482
2632.09777	0.0833776295
2630.66806	0.0832404271
2629.23835	0.0831118897
2627.80864	0.0829862431
2626.37893	0.0828604773
2624.94921	0.0827374458
2623.51950	0.0826220214
2622.08979	0.0825168937
2620.66008	0.0824205503
2619.23037	0.0823302418
2617.80066	0.0822442695
2616.37095	0.0821612850
2614.94124	0.0820759013
2613.51153	0.0819797888
2612.08182	0.0818654671
2610.65211	0.0817331225
2609.22239	0.0815921277
2607.79268	0.0814558044
2606.36297	0.0813349187
2604.93326	0.0812326595
2603.50355	0.0811461210
2602.07384	0.0810692385
2600.64413	0.0809958726
2599.21442	0.0809216648
2597.78471	0.0808457956
2596.35500	0.0807708055
2594.92529	0.0807021260
2593.49557	0.0806431845
2592.06586	0.0805926025
2590.63615	0.0805444270
2589.20644	0.0804903060
2587.77673	0.0804251879
2586.34702	0.0803486556
2584.91731	0.0802666545
2583.48760	0.0801886246
2582.05789	0.0801253319
2580.62818	0.0800836161
2579.19847	0.0800635666
2577.76875	0.0800570622
2576.33904	0.0800521150
2574.90933	0.0800389498
2573.47962	0.0800138041
2572.04991	0.0799783245
2570.62020	0.0799368694
2569.19049	0.0798924416
2567.76078	0.0798463002
2566.33107	0.0797984824
2564.90136	0.0797482505
2563.47165	0.0796948820
2562.04193	0.0796389952
2560.61222	0.0795832723
2559.18251	0.0795319751
2557.75280	0.0794893578
2556.32309	0.0794580877
2554.89338	0.0794399679
2553.46367	0.0794374198
2552.03396	0.0794524625
2550.60425	0.0794846341
2549.17454	0.0795287415
2547.74483	0.0795750991
2546.31511	0.0796129107
2544.88540	0.0796345174
2543.45569	0.0796373188
2542.02598	0.0796244442
2540.59627	0.0796025842
2539.16656	0.0795795768
2537.73685	0.0795621946
2536.30714	0.0795537084
2534.87743	0.0795540512
2533.44772	0.0795610771
2532.01801	0.0795727968
2530.58829	0.0795887783
2529.15858	0.0796089917
2527.72887	0.0796351060
2526.29916	0.0796693489
2524.86945	0.0797136948
2523.43974	0.0797682181
2522.01003	0.0798289105
2520.58032	0.0798878670
2519.15061	0.0799359083
2517.72090	0.0799672157
2516.29119	0.0799815878
2514.86147	0.0799823403
2513.43176	0.0799736530
2512.00205	0.0799578428
2510.57234	0.0799376816
2509.14263	0.0799190104
2507.71292	0.0799111724
2506.28321	0.0799242109
2504.85350	0.0799614862
2503.42379	0.0800179690
2501.99408	0.0800806284
2500.56437	0.0801362544
2499.13465	0.0801768526
2497.70494	0.0802010149
2496.27523	0.0802116022
2494.84552	0.0802127868
2493.41581	0.0802098587
2491.98610	0.0802102908
2490.55639	0.0802221224
2489.12668	0.0802501217
2487.69697	0.0802920014
2486.26726	0.0803383142
2484.83755	0.0803780928
2483.40784	0.0804049745
2481.97812	0.0804212019
2480.54841	0.0804357529
2479.11870	0.0804592744
2477.68899	0.0804973468
2476.25928	0.0805486292
2474.82957	0.0806051642
2473.39986	0.0806566477
2471.97015	0.0806949288
2470.54044	0.0807167515
2469.11073	0.0807227939
2467.68102	0.0807158723
2466.25130	0.0806987584
2464.82159	0.0806758478
2463.39188	0.0806530938
2461.96217	0.0806386322
2460.53246	0.0806386024
2459.10275	0.0806529745
2457.67304	0.0806753859
2456.24333	0.0806972310
2454.81362	0.0807140395
2453.38391	0.0807286575
2451.95420	0.0807473287
2450.52448	0.0807741433
2449.09477	0.0808065087
2447.66506	0.0808367804
2446.23535	0.0808574259
2444.80564	0.0808664709
2443.37593	0.0808678418
2441.94622	0.0808678120
2440.51651	0.0808692724
2439.08680	0.0808700845
2437.65709	0.0808646604
2436.22738	0.0808491632
2434.79766	0.0808245912
2433.36795	0.0807969049
2431.93824	0.0807734877
2430.50853	0.0807598308
2429.07882	0.0807569921
2427.64911	0.0807611123
2426.21940	0.0807642937
2424.78969	0.0807567462
2423.35998	0.0807313994
2421.93027	0.0806889758
2420.50056	0.0806389153
2419.07084	0.0805950984
2417.64113	0.0805670172
2416.21142	0.0805533379
2414.78171	0.0805424601
2413.35200	0.0805209950
2411.92229	0.0804832280
2410.49258	0.0804359987
2409.06287	0.0803938210
2407.63316	0.0803693682
2406.20345	0.0803630799
2404.77374	0.0803624541
2403.34402	0.0803493112
2401.91431	0.0803125873
2400.48460	0.0802548528
2399.05489	0.0801905245
2397.62518	0.0801367834
2396.19547	0.0801045969
2394.76576	0.0800939798
2393.33605	0.0800953805
2391.90634	0.0800934210
2390.47663	0.0800723806
2389.04692	0.0800223947
2387.61720	0.0799437165
2386.18749	0.0798475146
2384.75778	0.0797495246
2383.32807	0.0796604827
2381.89836	0.0795780867
2380.46865	0.0794860944
2379.03894	0.0793619230
2377.60923	0.0791893974
2376.17952	0.0789695159
2374.74981	0.0787217617
2373.32010	0.0784722939
2371.89038	0.0782368779
2370.46067	0.0780105740
2369.03096	0.0777733997
2367.60125	0.0775064602
2366.17154	0.0772063136
2364.74183	0.0768867284
2363.31212	0.0765742287
2361.88241	0.0763085186
2360.45270	0.0761369169
2359.02299	0.0760972574
2357.59328	0.0761937723
2356.16356	0.0763912946
2354.73385	0.0766330287
2353.30414	0.0768693909
2351.87443	0.0770687014
2350.44472	0.0772122517
2349.01501	0.0772818029
2347.58530	0.0772589818
2346.15559	0.0771301612
2344.72588	0.0769055784
2343.29617	0.0766321942
2341.86646	0.0763821229
2340.43674	0.0762103423
2339.00703	0.0761245787
2337.57732	0.0760969147
2336.14761	0.0760929957
2334.71790	0.0760917962
2333.28819	0.0760863051
2331.85848	0.0760784075
2330.42877	0.0760711953
2328.99906	0.0760646537
2327.56935	0.0760574713
2326.13964	0.0760504082
2324.70993	0.0760490820
2323.28021	0.0760613531
2321.85050	0.0760916695
2320.42079	0.0761364251
2318.99108	0.0761840269
2317.56137	0.0762220025
2316.13166	0.0762443691
2314.70195	0.0762531981
2313.27224	0.0762551725
2311.84253	0.0762547106
2310.41282	0.0762519911
2308.98311	0.0762452632
2307.55339	0.0762362555
2306.12368	0.0762301460
2304.69397	0.0762315020
2303.26426	0.0762382597
2301.83455	0.0762424916
2300.40484	0.0762347430
2298.97513	0.0762115419
2297.54542	0.0761765614
2296.11571	0.0761383101
2294.68600	0.0761047825
2293.25629	0.0760792121
2291.82657	0.0760587975
2290.39686	0.0760356635
2288.96715	0.0760026649
2287.53744	0.0759560466
2286.10773	0.0758973137
2284.67802	0.0758309737
2283.24831	0.0757609755
2281.81860	0.0756897256
2280.38889	0.0756183043
2278.95918	0.0755482540
2277.52947	0.0754805505
2276.09975	0.0754142106
2274.67004	0.0753469914
2273.24033	0.0752779618
2271.81062	0.0752079934
2270.38091	0.0751382187
2268.95120	0.0750663653
2267.52149	0.0749875382
2266.09178	0.0748987645
2264.66207	0.0748039186
2263.23236	0.0747136697
2261.80265	0.0746389627
2260.37293	0.0745840371
2258.94322	0.0745438933
2257.51351	0.0745081529
2256.08380	0.0744680539
2254.65409	0.0744214132
2253.22438	0.0743726566
2251.79467	0.0743278638
2250.36496	0.0742890388
2248.93525	0.0742523968
2247.50554	0.0742107853
2246.07583	0.0741580576
2244.64611	0.0740930587
2243.21640	0.0740199015
2241.78669	0.0739456266
2240.35698	0.0738766640
2238.92727	0.0738161877
2237.49756	0.0737627149
2236.06785	0.0737122521
2234.63814	0.0736594945
2233.20843	0.0736003667
2231.77872	0.0735322908
2230.34901	0.0734549090
2228.91929	0.0733702406
2227.48958	0.0732847676
2226.05987	0.0732074901
2224.63016	0.0731452405
2223.20045	0.0730983391
2221.77074	0.0730592832
2220.34103	0.0730168074
2218.91132	0.0729620233
2217.48161	0.0728917494
2216.05190	0.0728082657
2214.62219	0.0727169365
2213.19247	0.0726243034
2211.76276	0.0725361332
2210.33305	0.0724561438
2208.90334	0.0723838732
2207.47363	0.0723159909
2206.04392	0.0722495839
2204.61421	0.0721849948
2203.18450	0.0721264929
2201.75479	0.0720781460
2200.32508	0.0720392466
2198.89537	0.0720032454
2197.46565	0.0719592199
2196.03594	0.0718978494
2194.60623	0.0718170926
2193.17652	0.0717238337
2191.74681	0.0716299489
2190.31710	0.0715461001
2188.88739	0.0714759007
2187.45768	0.0714151189
2186.02797	0.0713555887
2184.59826	0.0712901875
2183.16855	0.0712164640
2181.73883	0.0711359233
2180.30912	0.0710519552
2178.87941	0.0709675774
2177.44970	0.0708832443
2176.01999	0.0707988963
2174.59028	0.0707152337
2173.16057	0.0706347525
2171.73086	0.0705597475
2170.30115	0.0704884902
2168.87144	0.0704143271
2167.44173	0.0703298002
2166.01202	0.0702335387
2164.58230	0.0701330379
2163.15259	0.0700399578
2161.72288	0.0699616447
2160.29317	0.0698960498
2158.86346	0.0698340535
2157.43375	0.0697676986
2156.00404	0.0696958452
2154.57433	0.0696245506
2153.14462	0.0695605576
2151.71491	0.0695047155
2150.28520	0.0694505870
2148.85548	0.0693885088
2147.42577	0.0693126768
2145.99606	0.0692254454
2144.56635	0.0691354126
2143.13664	0.0690510049
2141.70693	0.0689737499
2140.27722	0.0688984171
2138.84751	0.0688178837
2137.41780	0.0687292963
2135.98809	0.0686360598
2134.55838	0.0685438737
2133.12866	0.0684562474
2131.69895	0.0683724359
2130.26924	0.0682904497
2128.83953	0.0682093576
2127.40982	0.0681315884
2125.98011	0.0680589154
2124.55040	0.0679900348
2123.12069	0.0679196566
2121.69098	0.0678423345
2120.26127	0.0677569062
2118.83156	0.0676676035
2117.40184	0.0675803944
2115.97213	0.0674978644
2114.54242	0.0674174726
2113.11271	0.0673338547
2111.68300	0.0672432110
2110.25329	0.0671462715
2108.82358	0.0670482367
2107.39387	0.0669562668
2105.96416	0.0668767542
2104.53445	0.0668120235
2103.10474	0.0667595863
2101.67502	0.0667129159
2100.24531	0.0666647479
2098.81560	0.0666108802
2097.38589	0.0665506199
2095.95618	0.0664846972
2094.52647	0.0664133504
2093.09676	0.0663355067
2091.66705	0.0662517995
2090.23734	0.0661654845
2088.80763	0.0660807192
2087.37792	0.0659989864
2085.94820	0.0659181476
2084.51849	0.0658342764
2083.08878	0.0657460243
2081.65907	0.0656552017
2080.22936	0.0655654818
2078.79965	0.0654799268
2077.36994	0.0653996915
2075.94023	0.0653254315
2074.51052	0.0652568713
2073.08081	0.0651921928
2071.65110	0.0651261732
2070.22138	0.0650519878
2068.79167	0.0649640784
2067.36196	0.0648620576
2065.93225	0.0647520944
2064.50254	0.0646434575
2063.07283	0.0645452663
2061.64312	0.0644620806
2060.21341	0.0643933490
2058.78370	0.0643351674
2057.35399	0.0642824620
2055.92428	0.0642299354
2054.49456	0.0641723201
2053.06485	0.0641035736
2051.63514	0.0640191808
2050.20543	0.0639189407
2048.77572	0.0638091937
2047.34601	0.0637022257
2045.91630	0.0636100918
2044.48659	0.0635390431
2043.05688	0.0634868741
2041.62717	0.0634462237
2040.19746	0.0634078756
2038.76774	0.0633649528
2037.33803	0.0633124188
2035.90832	0.0632484257
2034.47861	0.0631735697
2033.04890	0.0630910397
2031.61919	0.0630046576
2030.18948	0.0629173368
2028.75977	0.0628313497
2027.33006	0.0627488196
2025.90035	0.0626713336
2024.47064	0.0625983104
2023.04092	0.0625260845
2021.61121	0.0624505766
2020.18150	0.0623701513
2018.75179	0.0622884557
2017.32208	0.0622116178
2015.89237	0.0621443801
2014.46266	0.0620865561
2013.03295	0.0620344169
2011.60324	0.0619824342
2010.17353	0.0619267225
2008.74382	0.0618658587
2007.31411	0.0618018955
2005.88439	0.0617390163
2004.45468	0.0616826825
2003.02497	0.0616379008
2001.59526	0.0616061874
2000.16555	0.0615835786
1998.73584	0.0615598932
1997.30613	0.0615225807
1995.87642	0.0614642166
1994.44671	0.0613875501
1993.01700	0.0613066666
1991.58729	0.0612383485
1990.15757	0.0611917637
1988.72786	0.0611623786
1987.29815	0.0611373745
1985.86844	0.0611052252
1984.43873	0.0610640757
1983.00902	0.0610209964
1981.57931	0.0609865896
1980.14960	0.0609662160
1978.71989	0.0609573387
1977.29018	0.0609512329
1975.86047	0.0609398223
1974.43075	0.0609192140
1973.00104	0.0608898774
1971.57133	0.0608530678
1970.14162	0.0608109012
1968.71191	0.0607671626
1967.28220	0.0607282780
1965.85249	0.0606989563
1964.42278	0.0606785044
1962.99307	0.0606602281
1961.56336	0.0606384687
1960.13365	0.0606128424
1958.70393	0.0605884977
1957.27422	0.0605706722
1955.84451	0.0605609678
1954.41480	0.0605570115
1952.98509	0.0605544522
1951.55538	0.0605475493
1950.12567	0.0605296642
1948.69596	0.0604954436
1947.26625	0.0604444481
1945.83654	0.0603844710
1944.40683	0.0603294708
1942.97711	0.0602940209
1941.54740	0.0602872372
1940.11769	0.0603075810
1938.68798	0.0603441373
1937.25827	0.0603811108
1935.82856	0.0604045205
1934.39885	0.0604088046
1932.96914	0.0603984818
1931.53943	0.0603833422
1930.10972	0.0603708476
1928.68001	0.0603615381
1927.25029	0.0603508279
1925.82058	0.0603325069
1924.39087	0.0603035055
1922.96116	0.0602664798
1921.53145	0.0602314174
1920.10174	0.0602131002
1918.67203	0.0602235384
1917.24232	0.0602616034
1915.81261	0.0603129938
1914.38290	0.0603582636
1912.95319	0.0603853948
1911.52347	0.0603939332
1910.09376	0.0603928305
1908.66405	0.0603944063
1907.23434	0.0604083017
1905.80463	0.0604367107
1904.37492	0.0604743175
1902.94521	0.0605119281
1901.51550	0.0605437085
1900.08579	0.0605709702
1898.65608	0.0606003441
1897.22637	0.0606360883
1895.79665	0.0606752597
1894.36694	0.0607106239
1892.93723	0.0607376881
1891.50752	0.0607579611
1890.07781	0.0607779399
1888.64810	0.0608029813
1887.21839	0.0608348437
1885.78868	0.0608700737
1884.35897	0.0609026514
1882.92926	0.0609280579
1881.49955	0.0609482825
1880.06983	0.0609725900
1878.64012	0.0610113740
1877.21041	0.0610659234
1875.78070	0.0611231029
1874.35099	0.0611624382
1872.92128	0.0611681603
1871.49157	0.0611406527
1870.06186	0.0611009933
1868.63215	0.0610835031
1867.20244	0.0611160696
1865.77273	0.0611991249
1864.34301	0.0613061599
1862.91330	0.0614033230
1861.48359	0.0614704490
1860.05388	0.0615100227
1858.62417	0.0615412816
1857.19446	0.0615842938
1855.76475	0.0616475679
1854.33504	0.0617261864
1852.90533	0.0618086420
1851.47562	0.0618815869
1850.04591	0.0619323067
1848.61619	0.0619526953
1847.18648	0.0619468465
1845.75677	0.0619364865
1844.32706	0.0619518608
1842.89735	0.0620107390
1841.46764	0.0621077307
1840.03793	0.0622228794
1838.60822	0.0623368919
1837.17851	0.0624350049
1835.74880	0.0625072196
1834.31909	0.0625514612
1832.88938	0.0625783429
1831.45966	0.0626093149
1830.02995	0.0626672655
1828.60024	0.0627639592
1827.17053	0.0628964230
1825.74082	0.0630516484
1824.31111	0.0632124618
1822.88140	0.0633610860
1821.45169	0.0634851679
1820.02198	0.0635827035
1818.59227	0.0636622682
1817.16256	0.0637353510
1815.73284	0.0638091043
1814.30313	0.0638870671
1812.87342	0.0639746711
1811.44371	0.0640799329
1810.01400	0.0642055646
1808.58429	0.0643426478
1807.15458	0.0644758940
1805.72487	0.0645943731
1804.29516	0.0646973252
1802.86545	0.0647925138
1801.43574	0.0648921132
1800.00602	0.0650075525
1798.57631	0.0651417524
1797.14660	0.0652853549
1795.71689	0.0654233471
1794.28718	0.0655503348
1792.85747	0.0656814575
1791.42776	0.0658403859
1789.99805	0.0660317764
1788.56834	0.0662337393
1787.13863	0.0664187223
1785.70892	0.0665769875
1784.27920	0.0667190775
1782.84949	0.0668622032
1781.41978	0.0670169443
1779.99007	0.0671832561
1778.56036	0.0673537403
1777.13065	0.0675170422
1775.70094	0.0676613078
1774.27123	0.0677863210
1772.84152	0.0679180548
1771.41181	0.0681024268
1769.98210	0.0683653727
1768.55238	0.0686878115
1767.12267	0.0690293983
1765.69296	0.0693667009
1764.26325	0.0697012246
1762.83354	0.0700452179
1761.40383	0.0704100356
1759.97412	0.0708034635
1758.54441	0.0712319911
1757.11470	0.0716947615
1755.68499	0.0721809566
1754.25528	0.0726801455
1752.82556	0.0731984824
1751.39585	0.0737620667
1749.96614	0.0743904412
1748.53643	0.0750677511
1747.10672	0.0757533014
1745.67701	0.0764225870
1744.24730	0.0770806372
1742.81759	0.0777360871
1741.38788	0.0783776790
1739.95817	0.0789826214
1738.52846	0.0795466825
1737.09874	0.0801007375
1735.66903	0.0806986988
1734.23932	0.0813879892
1732.80961	0.0821804553
1731.37990	0.0830518380
1729.95019	0.0839726180
1728.52048	0.0849314854
1727.09077	0.0859331414
1725.66106	0.0869833827
1724.23135	0.0880794078
1722.80164	0.0892146081
1721.37192	0.0904049352
1719.94221	0.0917172283
1718.51250	0.0932552814
1717.08279	0.0950539708
1715.65308	0.0969698057
1714.22337	0.0987775773
1712.79366	0.1003818214
1711.36395	0.1018498540
1709.93424	0.1033066139
1708.50453	0.1048505530
1707.07482	0.1065344959
1705.64510	0.1083957627
1704.21539	0.1105104014
1702.78568	0.1130279750
1701.35597	0.1161417142
1699.92626	0.1199565902
1698.49655	0.1243043020
1697.06684	0.1287342161
1695.63713	0.1328068078
1694.20742	0.1363516152
1692.77771	0.1394305378
1691.34800	0.1421930641
1689.91828	0.1448136568
1688.48857	0.1475106180
1687.05886	0.1505675465
1685.62915	0.1542314440
1684.19944	0.1584265977
1682.76973	0.1626371294
1681.34002	0.1663611829
1679.91031	0.1695468724
1678.48060	0.1724645495
1677.05089	0.1754018068
1675.62118	0.1785126328
1674.19147	0.1818205416
1672.76175	0.1853060126
1671.33204	0.1889634132
1669.90233	0.1927519292
1668.47262	0.1965469271
1667.04291	0.2002237588
1665.61320	0.2037727535
1664.18349	0.2072651684
1662.75378	0.2106909305
1661.32407	0.2138615698
1659.89436	0.2165128142
1658.46465	0.2184743136
1657.03493	0.2196865678
1655.60522	0.2200891674
1654.17551	0.2195795923
1652.74580	0.2181864679
1651.31609	0.2162142545
1649.88638	0.2139896303
1648.45667	0.2115944475
1647.02696	0.2090148479
1645.59725	0.2063858360
1644.16754	0.2039613873
1642.73783	0.2018787563
1641.30811	0.2000383437
1639.87840	0.1981786191
1638.44869	0.1960112602
1637.01898	0.1933858097
1635.58927	0.1904492825
1634.15956	0.1875510663
1632.72985	0.1848811656
1631.30014	0.1823164076
1629.87043	0.1795698851
1628.44072	0.1763466597
1627.01101	0.1724402159
1625.58129	0.1678379029
1624.15158	0.1627739519
1622.72187	0.1575887501
1621.29216	0.1524754465
1619.86245	0.1473809928
1618.43274	0.1421614587
1617.00303	0.1368535757
1615.57332	0.1317806542
1614.14361	0.1273163259
1612.71390	0.1235689074
1611.28419	0.1203628555
1609.85447	0.1174568981
1608.42476	0.1147297248
1606.99505	0.1122078300
1605.56534	0.1099717095
1604.13563	0.1080535203
1602.70592	0.1064248383
1601.27621	0.1050472409
1599.84650	0.1039018109
1598.41679	0.1029735729
1596.98708	0.1022341475
1595.55737	0.1016524583
1594.12765	0.1012157649
1592.69794	0.1009262502
1591.26823	0.1007817015
1589.83852	0.1007711217
1588.40881	0.1008891240
1586.97910	0.1011436805
1585.54939	0.1015386283
1584.11968	0.1020535678
1582.68997	0.1026531756
1581.26026	0.1033202410
1579.83055	0.1040786207
1578.40083	0.1049772799
1576.97112	0.1060389727
1575.54141	0.1072199121
1574.11170	0.1084438786
1572.68199	0.1096840948
1571.25228	0.1109867617
1569.82257	0.1124117970
1568.39286	0.1139524654
1566.96315	0.1155199930
1565.53344	0.1170200929
1564.10373	0.1184459925
1562.67401	0.1199173853
1561.24430	0.1216708645
1559.81459	0.1239531487
1558.38488	0.1267125458
1556.95517	0.1294440180
1555.52546	0.1316777170
1554.09575	0.1333623976
1552.66604	0.1346440613
1551.23633	0.1356144100
1549.80662	0.1362721771
1548.37691	0.1365803033
1546.94719	0.1365159601
1545.51748	0.1360582560
1544.08777	0.1351361722
1542.65806	0.1336399615
1541.22835	0.1316102743
1539.79864	0.1294108629
1538.36893	0.1274472028
1536.93922	0.1257846802
1535.50951	0.1242383793
1534.07980	0.1226320490
1532.65009	0.1209147424
1531.22037	0.1191351190
1529.79066	0.1173504889
1528.36095	0.1155601218
1526.93124	0.1137155518
1525.50153	0.1117737889
1524.07182	0.1097445488
1522.64211	0.1077003628
1521.21240	0.1057449058
1519.78269	0.1039496213
1518.35298	0.1023045480
1516.92327	0.1007295623
1515.49356	0.0991312861
1514.06384	0.0974432901
1512.63413	0.0956056640
1511.20442	0.0935056955
1509.77471	0.0909589455
1508.34500	0.0878679156
1506.91529	0.0845570043
1505.48558	0.0817156881
1504.05587	0.0797111169
1502.62616	0.0783397630
1501.19645	0.0772197694
1499.76674	0.0760843605
1498.33702	0.0748510584
1496.90731	0.0735960752
1495.47760	0.0724460185
1494.04789	0.0714545995
1492.61818	0.0705842003
1491.18847	0.0697804317
1489.75876	0.0690394416
1488.32905	0.0684173703
1486.89934	0.0679759607
1485.46963	0.0677267462
1484.03992	0.0676361695
1482.61020	0.0676651821
1481.18049	0.0677926764
1479.75078	0.0680161044
1478.32107	0.0683447719
1476.89136	0.0688002929
1475.46165	0.0694152042
1474.03194	0.0702011883
1472.60223	0.0710924417
1471.17252	0.0719487742
1469.74281	0.0726477727
1468.31310	0.0731520653
1466.88338	0.0734947622
1465.45367	0.0737394616
1464.02396	0.0739470646
1462.59425	0.0741569549
1461.16454	0.0743863210
1459.73483	0.0746412724
1458.30512	0.0749133155
1456.87541	0.0751587823
1455.44570	0.0753057972
1454.01599	0.0753064379
1452.58628	0.0751589313
1451.15656	0.0748801529
1449.72685	0.0744900554
1448.29714	0.0740186721
1446.86743	0.0735141709
1445.43772	0.0730251074
1444.00801	0.0725714043
1442.57830	0.0721325725
1441.14859	0.0716632530
1439.71888	0.0711193085
1438.28917	0.0704869702
1436.85946	0.0698087364
1435.42974	0.0691769645
1434.00003	0.0686831772
1432.57032	0.0683730096
1431.14061	0.0682479218
1429.71090	0.0682887807
1428.28119	0.0684679449
1426.85148	0.0687523708
1425.42177	0.0691095814
1423.99206	0.0695167184
1422.56235	0.0699658394
1421.13264	0.0704603568
1419.70292	0.0710035115
1418.27321	0.0715837926
1416.84350	0.0721730366
1415.41379	0.0727449954
1413.98408	0.0732912049
1412.55437	0.0738202110
1411.12466	0.0743440539
1409.69495	0.0748656392
1408.26524	0.0753741786
1406.83553	0.0758476779
1405.40582	0.0762578249
1403.97610	0.0765736103
1402.54639	0.0767658353
1401.11668	0.0768141225
1399.68697	0.0767128319
1398.25726	0.0764759257
1396.82755	0.0761383697
1395.39784	0.0757492632
1393.96813	0.0753475726
1392.53842	0.0749380440
1391.10871	0.0744886398
1389.67900	0.0739509985
1388.24928	0.0732930154
1386.81957	0.0725255162
1385.38986	0.0717012361
1383.96015	0.0708804056
1382.53044	0.0700946152
1381.10073	0.0693432838
1379.67102	0.0686163530
1378.24131	0.0679159686
1376.81160	0.0672645494
1375.38189	0.0666985512
1373.95218	0.0662517101
1372.52246	0.0659348369
1371.09275	0.0657251552
1369.66304	0.0655743629
1368.23333	0.0654309615
1366.80362	0.0652627349
1365.37391	0.0650684685
1363.94420	0.0648752823
1362.51449	0.0647211820
1361.08478	0.0646330044
1359.65507	0.0646148324
1358.22536	0.0646548122
1356.79565	0.0647345185
1355.36593	0.0648357272
1353.93622	0.0649404526
1352.50651	0.0650344640
1351.07680	0.0651099682
1349.64709	0.0651638880
1348.21738	0.0651924983
1346.78767	0.0651896372
1345.35796	0.0651507154
1343.92825	0.0650809184
1342.49854	0.0649991035
1341.06883	0.0649365410
1339.63911	0.0649237037
1338.20940	0.0649753511
1336.77969	0.0650816113
1335.34998	0.0652190223
1333.92027	0.0653688237
1332.49056	0.0655280575
1331.06085	0.0657068416
1329.63114	0.0659160018
1328.20143	0.0661578551
1326.77172	0.0664251447
1325.34201	0.0667074248
1323.91229	0.0669968575
1322.48258	0.0672896653
1321.05287	0.0675831512
1319.62316	0.0678738058
1318.19345	0.0681580231
1316.76374	0.0684320331
1315.33403	0.0686927885
1313.90432	0.0689380094
1312.47461	0.0691688284
1311.04490	0.0693907514
1309.61519	0.0696110278
1308.18547	0.0698336586
1306.75576	0.0700555891
1305.32605	0.0702673495
1303.89634	0.0704579502
1302.46663	0.0706206262
1301.03692	0.0707554743
1299.60721	0.0708693787
1298.17750	0.0709710494
1296.74779	0.0710681453
1295.31808	0.0711643174
1293.88837	0.0712606907
1292.45865	0.0713590980
1291.02894	0.0714625344
1289.59923	0.0715738758
1288.16952	0.0716907904
1286.73981	0.0718052089
1285.31010	0.0719056427
1283.88039	0.0719836652
1282.45068	0.0720387846
1281.02097	0.0720806494
1279.59126	0.0721255764
1278.16155	0.0721910745
1276.73183	0.0722911656
1275.30212	0.0724350959
1273.87241	0.0726304576
1272.44270	0.0728858113
1271.01299	0.0732101575
1269.58328	0.0736076310
1268.15357	0.0740755871
1266.72386	0.0746072084
1265.29415	0.0751990080
1263.86444	0.0758557245
1262.43473	0.0765870437
1261.00501	0.0773978010
1259.57530	0.0782789066
1258.14559	0.0792047754
1256.71588	0.0801360086
1255.28617	0.0810251608
1253.85646	0.0818230286
1252.42675	0.0824858099
1250.99704	0.0829830170
1249.56733	0.0833029822
1248.13762	0.0834518746
1246.70791	0.0834484845
1245.27819	0.0833162218
1243.84848	0.0830770358
1242.41877	0.0827489719
1240.98906	0.0823460147
1239.55935	0.0818800703
1238.12964	0.0813621059
1236.69993	0.0808039457
1235.27022	0.0802170187
1233.84051	0.0796105787
1232.41080	0.0789914727
1230.98109	0.0783628598
1229.55137	0.0777269900
1228.12166	0.0770858303
1226.69195	0.0764421001
1225.26224	0.0757973120
1223.83253	0.0751499459
1222.40282	0.0744944215
1220.97311	0.0738234296
1219.54340	0.0731337219
1218.11369	0.0724302977
1216.68398	0.0717276782
1215.25427	0.0710455850
1213.82455	0.0704029128
1212.39484	0.0698131397
1210.96513	0.0692836493
1209.53542	0.0688181892
1208.10571	0.0684193373
1206.67600	0.0680894628
1205.24629	0.0678301975
1203.81658	0.0676400438
1202.38687	0.0675152242
1200.95716	0.0674539357
1199.52745	0.0674621910
1198.09774	0.0675564408
1196.66802	0.0677582398
1195.23831	0.0680813491
1193.80860	0.0685212910
1192.37889	0.0690531582
1190.94918	0.0696403161
1189.51947	0.0702496991
1188.08976	0.0708628818
1186.66005	0.0714802667
1185.23034	0.0721180215
1183.80063	0.0728021413
1182.37092	0.0735597685
1180.94120	0.0744101927
1179.51149	0.0753572434
1178.08178	0.0763873383
1176.65207	0.0774751157
1175.22236	0.0785917044
1173.79265	0.0797125101
1172.36294	0.0808205679
1170.93323	0.0819069818
1169.50352	0.0829730257
1168.07381	0.0840293095
1166.64410	0.0850926787
1165.21438	0.0861786976
1163.78467	0.0872961506
1162.35496	0.0884433612
1160.92525	0.0896111056
1159.49554	0.0907868221
1158.06583	0.0919600949
1156.63612	0.0931257680
1155.20641	0.0942841917
1153.77670	0.0954384878
1152.34699	0.0965896249
1150.91728	0.0977349952
1149.48756	0.0988731980
1148.05785	0.1000122353
1146.62814	0.1011744589
1145.19843	0.1023921967
1143.76872	0.1036955863
1142.33901	0.1051014438
1140.90930	0.1066100970
1139.47959	0.1082137674
1138.04988	0.1099047512
1136.62017	0.1116804853
1135.19046	0.1135388389
1133.76074	0.1154714301
1132.33103	0.1174615473
1130.90132	0.1194889098
1129.47161	0.1215377301
1128.04190	0.1236007661
1126.61219	0.1256776005
1125.18248	0.1277677119
1123.75277	0.1298653781
1122.32306	0.1319571286
1120.89335	0.1340232939
1119.46364	0.1360402405
1118.03392	0.1379864067
1116.60421	0.1398496777
1115.17450	0.1416337490
1113.74479	0.1433573216
1112.31508	0.1450433284
1110.88537	0.1467033178
1109.45566	0.1483265609
1108.02595	0.1498814076
1106.59624	0.1513288021
1105.16653	0.1526367664
1103.73682	0.1537893414
1102.30710	0.1547868252
1100.87739	0.1556418240
1099.44768	0.1563747525
1098.01797	0.1570098996
1096.58826	0.1575685889
1095.15855	0.1580618769
1093.72884	0.1584855020
1092.29913	0.1588208377
1090.86942	0.1590410918
1089.43971	0.1591185927
1088.01000	0.1590313464
1086.58028	0.1587660164
1085.15057	0.1583182961
1083.72086	0.1576909125
1082.29115	0.1568879634
1080.86144	0.1559114307
1079.43173	0.1547610611
1078.00202	0.1534401774
1076.57231	0.1519607306
1075.14260	0.1503461301
1073.71289	0.1486270577
1072.28318	0.1468348205
1070.85346	0.1449948847
1069.42375	0.1431228071
1067.99404	0.1412207186
1066.56433	0.1392788291
1065.13462	0.1372785568
1063.70491	0.1351982206
1062.27520	0.1330179870
1060.84549	0.1307229698
1059.41578	0.1283036917
1057.98607	0.1257589161
1056.55636	0.1231004521
1055.12664	0.1203574240
1053.69693	0.1175749376
1052.26722	0.1148050129
1050.83751	0.1120925769
1049.40780	0.1094660833
1047.97809	0.1069357693
1046.54838	0.1044997945
1045.11867	0.1021526903
1043.68896	0.0998931006
1042.25925	0.0977268592
1040.82954	0.0956678316
1039.39983	0.0937334746
1037.97011	0.0919373855
1036.54040	0.0902821943
1035.11069	0.0887560099
1033.68098	0.0873361230
1032.25127	0.0859944448
1030.82156	0.0847054124
1029.39185	0.0834517777
1027.96214	0.0822292194
1026.53243	0.0810463428
1025.10272	0.0799208507
1023.67301	0.0788722858
1022.24329	0.0779176727
1020.81358	0.0770728737
1019.38387	0.0763558894
1017.95416	0.0757890195
1016.52445	0.0753941610
1015.09474	0.0751880184
1013.66503	0.0751782283
1012.23532	0.0753637701
1010.80561	0.0757369995
1009.37590	0.0762855038
1007.94619	0.0769939348
1006.51647	0.0778475255
1005.08676	0.0788343549
1003.65705	0.0799440295
1002.22734	0.0811605677
1000.79763	0.0824537873
999.36792	0.0837764218
997.93821	0.0850697234
996.50850	0.0862746164
995.07879	0.0873412192
993.64908	0.0882292837
992.21937	0.0889046788
990.78965	0.0893364102
989.35994	0.0895031914
987.93023	0.0894014090
986.50052	0.0890490562
985.07081	0.0884796306
983.64110	0.0877287537
982.21139	0.0868230313
980.78168	0.0857781023
979.35197	0.0846040547
977.92226	0.0833122060
976.49255	0.0819199234
975.06283	0.0804503337
973.63312	0.0789304972
972.20341	0.0773898140
970.77370	0.0758590549
969.34399	0.0743681341
967.91428	0.0729441345
966.48457	0.0716047958
965.05486	0.0703560337
963.62515	0.0691935420
962.19544	0.0681120530
960.76573	0.0671173632
959.33601	0.0662290007
957.90630	0.0654713511
956.47659	0.0648577288
955.04688	0.0643806234
953.61717	0.0640157908
952.18746	0.0637335181
950.75775	0.0635088682
949.32804	0.0633234382
947.89833	0.0631637797
946.46862	0.0630207583
945.03891	0.0628906786
943.60919	0.0627748445
942.17948	0.0626763254
940.74977	0.0625964329
939.32006	0.0625339448
937.89035	0.0624854565
936.46064	0.0624435209
935.03093	0.0623937882
933.60122	0.0623158552
932.17151	0.0621909760
930.74180	0.0620148890
929.31209	0.0618034787
927.88237	0.0615861118
926.45266	0.0613900572
925.02295	0.0612270199
923.59324	0.0610901490
922.16353	0.0609602556
920.73382	0.0608147718
919.30411	0.0606343336
917.87440	0.0604062788
916.44469	0.0601274110
915.01498	0.0598045178
913.58527	0.0594525337
912.15555	0.0590885580
910.72584	0.0587283522
909.29613	0.0583873391
907.86642	0.0580863878
906.43671	0.0578541085
905.00700	0.0577227883
903.57729	0.0577169023
902.14758	0.0578417145
900.71787	0.0580800585
899.28816	0.0583990067
897.85845	0.0587637983
896.42873	0.0591532476
894.99902	0.0595668331
893.56931	0.0600212589
892.13960	0.0605357029
890.70989	0.0611159205
889.28018	0.0617474914
887.85047	0.0623999462
886.42076	0.0630382672
884.99105	0.0636331365
883.56134	0.0641661957
882.13163	0.0646311119
880.70192	0.0650351495
879.27220	0.0653977692
877.84249	0.0657444894
876.41278	0.0660976917
874.98307	0.0664653853
873.55336	0.0668361783
872.12365	0.0671815053
870.69394	0.0674676299
869.26423	0.0676722303
867.83452	0.0677951574
866.40481	0.0678568557
864.97510	0.0678806156
863.54538	0.0678719282
862.11567	0.0678125247
860.68596	0.0676733479
859.25625	0.0674376339
857.82654	0.0671124980
856.39683	0.0667209476
854.96712	0.0662847832
853.53741	0.0658156574
852.10770	0.0653181821
850.67799	0.0647976547
849.24828	0.0642609671
847.81856	0.0637136474
846.38885	0.0631593168
844.95914	0.0626059100
843.52943	0.0620687306
842.09972	0.0615626387
840.67001	0.0610893741
839.24030	0.0606371611
837.81059	0.0601952896
836.38088	0.0597726107
834.95117	0.0593974143
833.52146	0.0590956174
832.09174	0.0588631816
830.66203	0.0586598739
829.23232	0.0584281161
827.80261	0.0581243262
826.37290	0.0577371269
824.94319	0.0572869405
823.51348	0.0568130016
822.08377	0.0563600585
820.65406	0.0559683330
819.22435	0.0556633174
817.79464	0.0554480925
816.36492	0.0553024709
814.93521	0.0551934652
813.50550	0.0550916865
812.07579	0.0549845248
810.64608	0.0548771843
809.21637	0.0547859333
807.78666	0.0547254719
806.35695	0.0547003075
804.92724	0.0547001027
803.49753	0.0547042415
802.06782	0.0546932332
800.63810	0.0546610840
799.20839	0.0546187833
797.77868	0.0545864627
796.34897	0.0545792729
794.91926	0.0545979999
793.48955	0.0546313748
792.05984	0.0546667501
790.63013	0.0547008067
789.20042	0.0547419451
787.77071	0.0548030809
786.34100	0.0548930727
784.91128	0.0550084673
783.48157	0.0551327392
782.05186	0.0552413203
780.62215	0.0553099699
779.19244	0.0553249940
777.76273	0.0552906804
776.33302	0.0552305914
774.90331	0.0551797673
773.47360	0.0551690087
772.04389	0.0552080423
770.61418	0.0552821569
769.18446	0.0553626902
767.75475	0.0554278269
766.32504	0.0554755330
764.89533	0.0555205643
763.46562	0.0555790775
762.03591	0.0556555465
760.60620	0.0557417423
759.17649	0.0558255129
757.74678	0.0559008457
756.31707	0.0559720732
754.88736	0.0560522340
753.45764	0.0561558008
752.02793	0.0562900081
750.59822	0.0564459525
749.16851	0.0565975308
747.73880	0.0567116067
746.30909	0.0567642339
744.87938	0.0567525513
743.44967	0.0566942953
742.01996	0.0566169918
740.59025	0.0565477535
739.16054	0.0565100424
737.73082	0.0565235764
736.30111	0.0566019528
734.87140	0.0567455590
733.44169	0.0569380559
732.01198	0.0571539029
730.58227	0.0573750287
729.15256	0.0576027669
727.72285	0.0578564443
726.29314	0.0581582114
724.86343	0.0585135892
723.43372	0.0589019842
722.00401	0.0592826605
720.57429	0.0596134812
719.14458	0.0598737709
717.71487	0.0600768737
716.28516	0.0602627322
714.85545	0.0604744963
713.42574	0.0607359298
711.99603	0.0610428937
710.56632	0.0613722242
709.13661	0.0616985857
707.70690	0.0620030351
706.27719	0.0622707382
704.84747	0.0624861158
703.41776	0.0626349151
701.98805	0.0627146065
700.55834	0.0627391636
699.12863	0.0627312064
697.69892	0.0627062917
696.26921	0.0626641884
694.83950	0.0625932291
693.40979	0.0624822304
691.98008	0.0623293631
690.55037	0.0621437803
689.12065	0.0619455315
687.69094	0.0617656074
686.26123	0.0616431199
684.83152	0.0616125129
683.40181	0.0616855472
681.97210	0.0618387237
680.54239	0.0620208904
679.11268	0.0621758588
677.68297	0.0622680783
676.25326	0.0622926392
674.82355	0.0622653626
673.39383	0.0622045659
671.96412	0.0621235296
670.53441	0.0620390773
669.10470	0.0619858056
667.67499	0.0620048568
666.24528	0.0621059686
664.81557	0.0622563995
663.38586	0.0624165908
661.95615	0.0625637472
660.52644	0.0626860186
659.09673	0.0627650619
657.66701	0.0627699718
656.23730	0.0626720786
654.80759	0.0624708720
653.37788	0.0622109883
651.94817	0.0619743131
650.51846	0.0618461557
649.08875	0.0618723333
647.65904	0.0620304756
646.22933	0.0622369200
644.79962	0.0623866469
643.36991	0.0624052659
641.94019	0.0622812249
640.51048	0.0620599501
639.08077	0.0618083701
637.65106	0.0615767464
636.22135	0.0613821261
634.79164	0.0612127744
633.36193	0.0610369071
631.93222	0.0608052425
630.50251	0.0604556650
629.07280	0.0599327534
627.64309	0.0592193417
626.21337	0.0583627634
624.78366	0.0574740022
623.35395	0.0566904284
621.92424	0.0561182424
620.49453	0.0557927191
619.06482	0.0556758232
617.63511	0.0556799434
616.20540	0.0557040423
614.77569	0.0556707606
613.34598	0.0555484518
611.91627	0.0553475171
610.48655	0.0550979152
609.05684	0.0548332445
607.62713	0.0545908660
606.19742	0.0544178039
604.76771	0.0543601513
603.33800	0.0544440970
601.90829	0.0546647832
600.47858	0.0549916923
599.04887	0.0553843305
