3997.47168	0.0714909136
3996.04197	0.0714488328
3994.61226	0.0714282691
3993.18255	0.0714357123
3991.75284	0.0714711100
3990.32312	0.0715295523
3988.89341	0.0716021955
3987.46370	0.0716749504
3986.03399	0.0717305467
3984.60428	0.0717542768
3983.17457	0.0717424899
3981.74486	0.0717047751
3980.31515	0.0716597736
3978.88544	0.0716231093
3977.45573	0.0716010705
3976.02602	0.0715915486
3974.59630	0.0715906322
3973.16659	0.0715960935
3971.73688	0.0716068968
3970.30717	0.0716193542
3968.87746	0.0716275647
3967.44775	0.0716276616
3966.01804	0.0716200843
3964.58833	0.0716111436
3963.15862	0.0716091320
3961.72891	0.0716181919
3960.29920	0.0716345906
3958.86948	0.0716462210
3957.43977	0.0716384947
3956.01006	0.0716029927
3954.58035	0.0715446323
3953.15064	0.0714812130
3951.72093	0.0714358687
3950.29122	0.0714236870
3948.86151	0.0714430958
3947.43180	0.0714775473
3946.00209	0.0715117306
3944.57238	0.0715431347
3943.14266	0.0715837032
3941.71295	0.0716429204
3940.28324	0.0717112198
3938.85353	0.0717601404
3937.42382	0.0717620924
3935.99411	0.0717099681
3934.56440	0.0716244802
3933.13469	0.0715413317
3931.70498	0.0714875609
3930.27527	0.0714640617
3928.84556	0.0714533180
3927.41585	0.0714376047
3925.98613	0.0714102015
3924.55642	0.0713752657
3923.12671	0.0713413730
3921.69700	0.0713202655
3920.26729	0.0713266730
3918.83758	0.0713720992
3917.40787	0.0714517310
3915.97816	0.0715372115
3914.54845	0.0715866610
3913.11874	0.0715655088
3911.68903	0.0714593008
3910.25931	0.0712742954
3908.82960	0.0710320473
3907.39989	0.0707686692
3905.97018	0.0705381557
3904.54047	0.0704100057
3903.11076	0.0704448596
3901.68105	0.0706452057
3900.25134	0.0709341690
3898.82163	0.0712008178
3897.39192	0.0713727996
3895.96221	0.0714417249
3894.53249	0.0714455694
3893.10278	0.0714378804
3891.67307	0.0714577436
3890.24336	0.0715096518
3888.81365	0.0715670064
3887.38394	0.0715971589
3885.95423	0.0715857744
3884.52452	0.0715453327
3883.09481	0.0715034902
3881.66510	0.0714816675
3880.23539	0.0714742243
3878.80567	0.0714509115
3877.37596	0.0713788420
3875.94625	0.0712496191
3874.51654	0.0710940287
3873.08683	0.0709705949
3871.65712	0.0709298700
3870.22741	0.0709768385
3868.79770	0.0710718036
3867.36799	0.0711758137
3865.93828	0.0712829232
3864.50857	0.0713948235
3863.07885	0.0714787692
3861.64914	0.0714674816
3860.21943	0.0713071153
3858.78972	0.0710031167
3857.36001	0.0706400573
3855.93030	0.0703874752
3854.50059	0.0704540536
3853.07088	0.0709068924
3851.64117	0.0715248510
3850.21146	0.0720022395
3848.78175	0.0722088367
3847.35203	0.0721718818
3845.92232	0.0719646886
3844.49261	0.0716618821
3843.06290	0.0713425651
3841.63319	0.0711001605
3840.20348	0.0710256174
3838.77377	0.0711542219
3837.34406	0.0714228079
3835.91435	0.0717050210
3834.48464	0.0719068944
3833.05493	0.0720158368
3831.62521	0.0720671117
3830.19550	0.0720847473
3828.76579	0.0720582530
3827.33608	0.0719659105
3825.90637	0.0718105286
3824.47666	0.0716350749
3823.04695	0.0715081319
3821.61724	0.0714892074
3820.18753	0.0715977699
3818.75782	0.0718050301
3817.32811	0.0720493272
3815.89839	0.0722585991
3814.46868	0.0723744258
3813.03897	0.0723727718
3811.60926	0.0722690299
3810.17955	0.0721070245
3808.74984	0.0719393641
3807.32013	0.0718097016
3805.89042	0.0717419982
3804.46071	0.0717423931
3803.03100	0.0718113482
3801.60129	0.0719490200
3800.17157	0.0721479133
3798.74186	0.0723885521
3797.31215	0.0726437941
3795.88244	0.0728889033
3794.45273	0.0731025040
3793.02302	0.0732646063
3791.59331	0.0733595490
3790.16360	0.0733831748
3788.73389	0.0733466446
3787.30418	0.0732748434
3785.87447	0.0732010528
3784.44475	0.0731598511
3783.01504	0.0731789023
3781.58533	0.0732694194
3780.15562	0.0734115317
3778.72591	0.0735509321
3777.29620	0.0736219212
3775.86649	0.0735857412
3774.43678	0.0734538063
3773.00707	0.0732813030
3771.57736	0.0731431544
3770.14765	0.0730998665
3768.71794	0.0731628239
3767.28822	0.0732847676
3765.85851	0.0733954087
3764.42880	0.0734494179
3762.99909	0.0734454691
3761.56938	0.0734126642
3760.13967	0.0733783320
3758.70996	0.0733392239
3757.28025	0.0732600987
3755.85054	0.0731053501
3754.42083	0.0728810951
3752.99112	0.0726533160
3751.56140	0.0725199804
3750.13169	0.0725454316
3748.70198	0.0727195963
3747.27227	0.0730008185
3745.84256	0.0733662918
3744.41285	0.0737871006
3742.98314	0.0741827786
3741.55343	0.0744528398
3740.12372	0.0745475814
3738.69401	0.0744995177
3737.26430	0.0744074956
3735.83458	0.0743898898
3734.40487	0.0745079070
3732.97516	0.0747141615
3731.54545	0.0749083608
3730.11574	0.0750317499
3728.68603	0.0750894174
3727.25632	0.0751237869
3725.82661	0.0751877427
3724.39690	0.0753176510
3722.96719	0.0755088553
3721.53748	0.0757099763
3720.10776	0.0758526772
3718.67805	0.0758904666
3717.24834	0.0758203417
3715.81863	0.0756859705
3714.38892	0.0755773634
3712.95921	0.0756124184
3711.52950	0.0758661777
3710.09979	0.0762812421
3708.67008	0.0766945109
3707.24037	0.0769878402
3705.81066	0.0771704167
3704.38094	0.0773337632
3702.95123	0.0775656551
3701.52152	0.0778851584
3700.09181	0.0782330930
3698.66210	0.0785244852
3697.23239	0.0787131041
3695.80268	0.0788160115
3694.37297	0.0789064988
3692.94326	0.0790979564
3691.51355	0.0795058310
3690.08384	0.0801592618
3688.65412	0.0809236318
3687.22441	0.0815796703
3685.79470	0.0819990486
3684.36499	0.0821964666
3682.93528	0.0822545886
3681.50557	0.0822604448
3680.07586	0.0822994262
3678.64615	0.0824667811
3677.21644	0.0828518048
3675.78673	0.0834852830
3674.35702	0.0843160078
3672.92730	0.0852729604
3671.49759	0.0863310099
3670.06788	0.0874754786
3668.63817	0.0886393860
3667.20846	0.0897221342
3665.77875	0.0906656310
3664.34904	0.0914864093
3662.91933	0.0922423452
3661.48962	0.0929885060
3660.05991	0.0937577263
3658.63020	0.0945614874
3657.20048	0.0953904763
3655.77077	0.0962195322
3654.34106	0.0970440209
3652.91135	0.0979351029
3651.48164	0.0990609825
3650.05193	0.1005889624
3648.62222	0.1024684533
3647.19251	0.1043752804
3645.76280	0.1060132906
3644.33309	0.1073528007
3642.90338	0.1085322425
3641.47366	0.1096846983
3640.04395	0.1108668223
3638.61424	0.1120671779
3637.18453	0.1132441163
3635.75482	0.1143662483
3634.32511	0.1154547483
3632.89540	0.1166210398
3631.46569	0.1180627123
3630.03598	0.1199346855
3628.60627	0.1221260503
3627.17656	0.1242464781
3625.74684	0.1259681880
3624.31713	0.1272779703
3622.88742	0.1283866614
3621.45771	0.1295377761
3620.02800	0.1308771521
3618.59829	0.1323976666
3617.16858	0.1339740604
3615.73887	0.1354839355
3614.30916	0.1369017512
3612.87945	0.1383004785
3611.44974	0.1397891790
3610.02003	0.1414304674
3608.59031	0.1431819797
3607.16060	0.1449214518
3605.73089	0.1465407759
3604.30118	0.1480153501
3602.87147	0.1493921429
3601.44176	0.1507390290
3600.01205	0.1521120518
3598.58234	0.1535474658
3597.15263	0.1550510526
3595.72292	0.1565825939
3594.29321	0.1580711156
3592.86349	0.1594792306
3591.43378	0.1608616114
3590.00407	0.1623465419
3588.57436	0.1640285850
3587.14465	0.1658542901
3585.71494	0.1676362902
3584.28523	0.1692111492
3582.85552	0.1705603749
3581.42581	0.1717805266
3579.99610	0.1729904711
3578.56639	0.1742650867
3577.13667	0.1756124049
3575.70696	0.1769816577
3574.27725	0.1783032119
3572.84754	0.1795473397
3571.41783	0.1807644814
3569.98812	0.1820771396
3568.55841	0.1836056411
3567.12870	0.1853613108
3565.69899	0.1872095764
3564.26928	0.1889732629
3562.83957	0.1905665398
3561.40985	0.1920068264
3559.98014	0.1933475882
3558.55043	0.1946337819
3557.12072	0.1959004998
3555.69101	0.1971793622
3554.26130	0.1984926611
3552.83159	0.1998434961
3551.40188	0.2012238055
3549.97217	0.2026310861
3548.54246	0.2040755451
3547.11275	0.2055659890
3545.68303	0.2070919424
3544.25332	0.2086205781
3542.82361	0.2101158202
3541.39390	0.2115586251
3539.96419	0.2129532844
3538.53448	0.2143197358
3537.10477	0.2156770080
3535.67506	0.2170288116
3534.24535	0.2183650732
3532.81564	0.2196790874
3531.38593	0.2209856957
3529.95621	0.2223172635
3528.52650	0.2236992866
3527.09679	0.2251298428
3525.66708	0.2265817523
3524.23737	0.2280245125
3522.80766	0.2294342965
3521.37795	0.2307921499
3519.94824	0.2320832759
3518.51853	0.2333078682
3517.08882	0.2344875783
3515.65911	0.2356552333
3514.22939	0.2368361354
3512.79968	0.2380400896
3511.36997	0.2392642349
3509.94026	0.2404966950
3508.51055	0.2417184860
3507.08084	0.2429149151
3505.65113	0.2440922260
3504.22142	0.2452815175
3502.79171	0.2465121150
3501.36200	0.2477800101
3499.93229	0.2490483969
3498.50257	0.2502849400
3497.07286	0.2514878213
3495.64315	0.2526740432
3494.21344	0.2538466454
3492.78373	0.2549859285
3491.35402	0.2560741007
3489.92431	0.2571170330
3488.49460	0.2581373453
3487.06489	0.2591524720
3485.63518	0.2601690888
3484.20547	0.2611960769
3482.77575	0.2622489333
3481.34604	0.2633341253
3479.91633	0.2644311488
3478.48662	0.2655028701
3477.05691	0.2665193677
3475.62720	0.2674708664
3474.19749	0.2683616877
3472.76778	0.2692036033
3471.33807	0.2700206935
3469.90836	0.2708490491
3468.47865	0.2717210650
3467.04893	0.2726464868
3465.61922	0.2736117840
3464.18951	0.2745971978
3462.75980	0.2755880654
3461.33009	0.2765689194
3459.90038	0.2775160670
3458.47067	0.2784047127
3457.04096	0.2792242765
3455.61125	0.2799812257
3454.18154	0.2806864977
3452.75183	0.2813509405
3451.32212	0.2819941938
3449.89240	0.2826514840
3448.46269	0.2833576202
3447.03298	0.2841203809
3445.60327	0.2849146128
3444.17356	0.2857036293
3442.74385	0.2864649892
3441.31414	0.2871915698
3439.88443	0.2878784537
3438.45472	0.2885193229
3437.02501	0.2891150415
3435.59530	0.2896767855
3434.16558	0.2902174592
3432.73587	0.2907431722
3431.30616	0.2912577093
3429.87645	0.2917725146
3428.44674	0.2923034728
3427.01703	0.2928571105
3425.58732	0.2934257090
3424.15761	0.2939950526
3422.72790	0.2945553362
3421.29819	0.2951011360
3419.86848	0.2956259847
3418.43876	0.2961248159
3417.00905	0.2966023386
3415.57934	0.2970697582
3414.14963	0.2975328863
3412.71992	0.2979856730
3411.29021	0.2984223366
3409.86050	0.2988527119
3408.43079	0.2992964089
3407.00108	0.2997596562
3405.57137	0.3002196848
3404.14166	0.3006370664
3402.71194	0.3009855747
3401.28223	0.3012697101
3399.85252	0.3015195727
3398.42281	0.3017714620
3396.99310	0.3020508289
3395.56339	0.3023605347
3394.13368	0.3026789129
3392.70397	0.3029713631
3391.27426	0.3032137156
3389.84455	0.3034088314
3388.41484	0.3035848737
3386.98512	0.3037759960
3385.55541	0.3040058315
3384.12570	0.3042835295
3382.69599	0.3046061099
3381.26628	0.3049589992
3379.83657	0.3053189516
3378.40686	0.3056645989
3376.97715	0.3059924841
3375.54744	0.3063167036
3374.11773	0.3066514432
3372.68802	0.3069908619
3371.25830	0.3073121309
3369.82859	0.3075941503
3368.39888	0.3078354001
3366.96917	0.3080497086
3365.53946	0.3082516491
3364.10975	0.3084464967
3362.68004	0.3086334765
3361.25033	0.3088137805
3359.82062	0.3089965582
3358.39091	0.3092002869
3356.96120	0.3094485104
3355.53148	0.3097568452
3354.10177	0.3101173341
3352.67206	0.3104964495
3351.24235	0.3108552694
3349.81264	0.3111765683
3348.38293	0.3114748597
3346.95322	0.3117784858
3345.52351	0.3121042252
3344.09380	0.3124470115
3342.66409	0.3127885163
3341.23438	0.3131110668
3339.80466	0.3134033978
3338.37495	0.3136621714
3336.94524	0.3138966858
3335.51553	0.3141312301
3334.08582	0.3143994808
3332.65611	0.3147293031
3331.22640	0.3151308596
3329.79669	0.3155956864
3328.36698	0.3161006868
3326.93727	0.3166129589
3325.50756	0.3170961738
3324.07784	0.3175245225
3322.64813	0.3178990185
3321.21842	0.3182501793
3319.78871	0.3186227381
3318.35900	0.3190543652
3316.92929	0.3195674121
3315.49958	0.3201732934
3314.06987	0.3208777905
3312.64016	0.3216725290
3311.21045	0.3225199878
3309.78074	0.3233519495
3308.35102	0.3240894675
3306.92131	0.3246734738
3305.49160	0.3250907958
3304.06189	0.3253779113
3302.63218	0.3256030381
3301.20247	0.3258334100
3299.77276	0.3261028230
3298.34305	0.3263978362
3296.91334	0.3266673982
3295.48363	0.3268536627
3294.05392	0.3269194365
3292.62421	0.3268623054
3291.19449	0.3267084956
3289.76478	0.3264957070
3288.33507	0.3262516856
3286.90536	0.3259785175
3285.47565	0.3256530166
3284.04594	0.3252434433
3282.61623	0.3247319162
3281.18652	0.3241292536
3279.75681	0.3234676421
3278.32710	0.3227781653
3276.89739	0.3220692575
3275.46767	0.3213172257
3274.03796	0.3204750419
3272.60825	0.3194925785
3271.17854	0.3183396161
3269.74883	0.3170210123
3268.31912	0.3155755699
3266.88941	0.3140591979
3265.45970	0.3125219643
3264.02999	0.3109934032
3262.60028	0.3094863892
3261.17057	0.3080074191
3259.74085	0.3065650463
3258.31114	0.3051653802
3256.88143	0.3038069606
3255.45172	0.3024842441
3254.02201	0.3011946082
3252.59230	0.2999408841
3251.16259	0.2987217903
3249.73288	0.2975234985
3248.30317	0.2963226736
3246.87346	0.2951031327
3245.44375	0.2938716710
3244.01403	0.2926626503
3242.58432	0.2915244102
3241.15461	0.2904976606
3239.72490	0.2895956039
3238.29519	0.2887932360
3236.86548	0.2880336344
3235.43577	0.2872503102
3234.00606	0.2863986492
3232.57635	0.2854769230
3231.14664	0.2845222354
3229.71693	0.2835863829
3228.28721	0.2827075124
3226.85750	0.2818973362
3225.42779	0.2811471224
3223.99808	0.2804408967
3222.56837	0.2797618806
3221.13866	0.2790915072
3219.70895	0.2784089446
3218.27924	0.2776958644
3216.84953	0.2769459188
3215.41982	0.2761695087
3213.99011	0.2753908336
3212.56039	0.2746352255
3211.13068	0.2739168406
3209.70097	0.2732300162
3208.27126	0.2725528479
3206.84155	0.2718605995
3205.41184	0.2711402476
3203.98213	0.2703970373
3202.55242	0.2696456015
3201.12271	0.2688944340
3199.69300	0.2681347728
3198.26329	0.2673442662
3196.83357	0.2665041089
3195.40386	0.2656143308
3193.97415	0.2646979094
3192.54444	0.2637870014
3191.11473	0.2629046142
3189.68502	0.2620526850
3188.25531	0.2612159550
3186.82560	0.2603746951
3185.39589	0.2595160902
3183.96618	0.2586386800
3182.53647	0.2577496171
3181.10675	0.2568582594
3179.67704	0.2559717894
3178.24733	0.2550920546
3176.81762	0.2542140186
3175.38791	0.2533279359
3173.95820	0.2524246871
3172.52849	0.2515024245
3171.09878	0.2505671680
3169.66907	0.2496287674
3168.23936	0.2486942261
3166.80965	0.2477655858
3165.37993	0.2468412519
3163.95022	0.2459213436
3162.52051	0.2450107634
3161.09080	0.2441194206
3159.66109	0.2432589233
3158.23138	0.2424352318
3156.80167	0.2416398227
3155.37196	0.2408482134
3153.94225	0.2400300950
3152.51254	0.2391668409
3151.08283	0.2382646352
3149.65311	0.2373518348
3148.22340	0.2364632189
3146.79369	0.2356217504
3145.36398	0.2348288447
3143.93427	0.2340657413
3142.50456	0.2333018035
3141.07485	0.2325064838
3139.64514	0.2316628844
3138.21543	0.2307789922
3136.78572	0.2298873961
3135.35601	0.2290297449
3133.92629	0.2282323539
3132.49658	0.2274918407
3131.06687	0.2267816812
3129.63716	0.2260774523
3128.20745	0.2253769636
3126.77774	0.2247005701
3125.34803	0.2240735441
3123.91832	0.2235037982
3122.48861	0.2229748964
3121.05890	0.2224544138
3119.62919	0.2219107300
3118.19948	0.2213250697
3116.76976	0.2206969112
3115.34005	0.2200411260
3113.91034	0.2193811387
3112.48063	0.2187362909
3111.05092	0.2181108445
3109.62121	0.2174934596
3108.19150	0.2168696076
3106.76179	0.2162404954
3105.33208	0.2156290710
3103.90237	0.2150651962
3102.47266	0.2145606428
3101.04294	0.2140961587
3099.61323	0.2136354446
3098.18352	0.2131562978
3096.75381	0.2126680613
3095.32410	0.2122021466
3093.89439	0.2117840201
3092.46468	0.2114113122
3091.03497	0.2110569924
3089.60526	0.2106896192
3088.17555	0.2102924883
3086.74584	0.2098684758
3085.31612	0.2094305307
3083.88641	0.2089882195
3082.45670	0.2085383087
3081.02699	0.2080636770
3079.59728	0.2075402588
3078.16757	0.2069518417
3076.73786	0.2063048631
3075.30815	0.2056329846
3073.87844	0.2049833983
3072.44873	0.2043910623
3071.01902	0.2038552463
3069.58930	0.2033383846
3068.15959	0.2027872205
3066.72988	0.2021648437
3065.30017	0.2014689595
3063.87046	0.2007288933
3062.44075	0.1999833286
3061.01104	0.1992584914
3059.58133	0.1985581666
3058.15162	0.1978693753
3056.72191	0.1971741915
3055.29220	0.1964595467
3053.86248	0.1957216412
3052.43277	0.1949657798
3051.00306	0.1942053884
3049.57335	0.1934578270
3048.14364	0.1927372068
3046.71393	0.1920449436
3045.28422	0.1913652271
3043.85451	0.1906720102
3042.42480	0.1899455786
3040.99509	0.1891874969
3039.56538	0.1884201616
3038.13566	0.1876699626
3036.70595	0.1869465858
3035.27624	0.1862348169
3033.84653	0.1855066270
3032.41682	0.1847441792
3030.98711	0.1839542687
3029.55740	0.1831628084
3028.12769	0.1823973507
3026.69798	0.1816712022
3025.26827	0.1809827536
3023.83856	0.1803242415
3022.40884	0.1796913147
3020.97913	0.1790829301
3019.54942	0.1784958839
3018.11971	0.1779216081
3016.69000	0.1773475409
3015.26029	0.1767633110
3013.83058	0.1761654913
3012.40087	0.1755579412
3010.97116	0.1749511361
3009.54145	0.1743607074
3008.11174	0.1738055497
3006.68202	0.1733049899
3005.25231	0.1728735566
3003.82260	0.1725166142
3002.39289	0.1722291112
3000.96318	0.1719987541
2999.53347	0.1718115211
2998.10376	0.1716560572
2996.67405	0.1715275198
2995.24434	0.1714287400
2993.81463	0.1713685095
2992.38492	0.1713596731
2990.95520	0.1714159399
2989.52549	0.1715509892
2988.09578	0.1717769504
2986.66607	0.1721003205
2985.23636	0.1725167632
2983.80665	0.1730092913
2982.37694	0.1735527813
2980.94723	0.1741243154
2979.51752	0.1747103631
2978.08781	0.1753074527
2976.65810	0.1759174764
2975.22838	0.1765427887
2973.79867	0.1771858484
2972.36896	0.1778494418
2970.93925	0.1785346270
2969.50954	0.1792330891
2968.07983	0.1799204201
2966.65012	0.1805555224
2965.22041	0.1810855716
2963.79070	0.1814580113
2962.36099	0.1816315651
2960.93128	0.1815866977
2959.50157	0.1813284159
2958.07185	0.1808817685
2956.64214	0.1802814305
2955.21243	0.1795645654
2953.78272	0.1787697524
2952.35301	0.1779422015
2950.92330	0.1771354526
2949.49359	0.1764056087
2948.06388	0.1757991612
2946.63417	0.1753450930
2945.20446	0.1750546992
2943.77475	0.1749273986
2942.34503	0.1749554724
2940.91532	0.1751224548
2939.48561	0.1753999442
2938.05590	0.1757466197
2936.62619	0.1761146188
2935.19648	0.1764595062
2933.76677	0.1767471731
2932.33706	0.1769553572
2930.90735	0.1770682335
2929.47764	0.1770693213
2928.04793	0.1769399494
2926.61821	0.1766627580
2925.18850	0.1762284040
2923.75879	0.1756380349
2922.32908	0.1748996675
2920.89937	0.1740195453
2919.46966	0.1729979068
2918.03995	0.1718325019
2916.61024	0.1705285162
2915.18053	0.1691087335
2913.75082	0.1676155031
2912.32111	0.1661042124
2910.89139	0.1646304578
2909.46168	0.1632376015
2908.03197	0.1619498730
2906.60226	0.1607734412
2905.17255	0.1597027779
2903.74284	0.1587283015
2902.31313	0.1578394026
2900.88342	0.1570250690
2899.45371	0.1562740207
2898.02400	0.1555750072
2896.59429	0.1549199373
2895.16457	0.1543047130
2893.73486	0.1537299901
2892.30515	0.1532012224
2890.87544	0.1527280807
2889.44573	0.1523249894
2888.01602	0.1520059407
2886.58631	0.1517787725
2885.15660	0.1516401917
2883.72689	0.1515786499
2882.29718	0.1515804082
2880.86747	0.1516339481
2879.43775	0.1517233253
2878.00804	0.1518173218
2876.57833	0.1518617570
2875.14862	0.1517880261
2873.71891	0.1515358239
2872.28920	0.1510780752
2870.85949	0.1504331231
2869.42978	0.1496587694
2868.00007	0.1488327086
2866.57036	0.1480289996
2865.14065	0.1473002434
2863.71093	0.1466713548
2862.28122	0.1461437494
2860.85151	0.1457041055
2859.42180	0.1453330219
2857.99209	0.1450047642
2856.56238	0.1446808279
2855.13267	0.1443039775
2853.70296	0.1438021958
2852.27325	0.1431064010
2850.84354	0.1421758533
2849.41383	0.1410193145
2847.98411	0.1396996081
2846.55440	0.1383188814
2845.12469	0.1369872987
2843.69498	0.1357894093
2842.26527	0.1347621828
2840.83556	0.1338963211
2839.40585	0.1331548989
2837.97614	0.1324989796
2836.54643	0.1319015920
2835.11672	0.1313472092
2833.68701	0.1308246702
2832.25729	0.1303235441
2830.82758	0.1298384964
2829.39787	0.1293726414
2827.96816	0.1289359182
2826.53845	0.1285370141
2825.10874	0.1281762272
2823.67903	0.1278441101
2822.24932	0.1275253892
2820.81961	0.1272057593
2819.38990	0.1268768013
2817.96019	0.1265399605
2816.53047	0.1262056828
2815.10076	0.1258874685
2813.67105	0.1255925894
2812.24134	0.1253155917
2810.81163	0.1250408143
2809.38192	0.1247518137
2807.95221	0.1244437322
2806.52250	0.1241271943
2805.09279	0.1238236874
2803.66308	0.1235526353
2802.23337	0.1233201921
2800.80366	0.1231137514
2799.37394	0.1229075789
2797.94423	0.1226777807
2796.51452	0.1224146485
2795.08481	0.1221260503
2793.65510	0.1218273342
2792.22539	0.1215277612
2790.79568	0.1212245971
2789.36597	0.1209094748
2787.93626	0.1205798462
2786.50655	0.1202450097
2785.07684	0.1199213117
2783.64712	0.1196241081
2782.21741	0.1193608344
2780.78770	0.1191315800
2779.35799	0.1189281717
2777.92828	0.1187347993
2776.49857	0.1185295731
2775.06886	0.1182928011
2773.63915	0.1180178076
2772.20944	0.1177151427
2770.77973	0.1174065545
2769.35002	0.1171106920
2767.92030	0.1168328896
2766.49059	0.1165664271
2765.06088	0.1163021997
2763.63117	0.1160373837
2762.20146	0.1157762483
2760.77175	0.1155237779
2759.34204	0.1152798906
2757.91233	0.1150404960
2756.48262	0.1148032546
2755.05291	0.1145719066
2753.62320	0.1143534184
2752.19348	0.1141489372
2750.76377	0.1139477193
2749.33406	0.1137306169
2747.90435	0.1134815514
2746.47464	0.1131996736
2745.04493	0.1129012257
2743.61522	0.1126102954
2742.18551	0.1123448685
2740.75580	0.1121070534
2739.32609	0.1118835658
2737.89638	0.1116539016
2736.46666	0.1114019454
2735.03695	0.1111245528
2733.60724	0.1108333394
2732.17753	0.1105495989
2730.74782	0.1102920100
2729.31811	0.1100668833
2727.88840	0.1098634824
2726.45869	0.1096592695
2725.02898	0.1094330475
2723.59927	0.1091761142
2722.16956	0.1088958532
2720.73984	0.1086101532
2719.31013	0.1083362326
2717.88042	0.1080819741
2716.45071	0.1078448519
2715.02100	0.1076153889
2713.59129	0.1073839888
2712.16158	0.1071426794
2710.73187	0.1068871617
2709.30216	0.1066185683
2707.87245	0.1063448042
2706.44274	0.1060792878
2705.01302	0.1058341041
2703.58331	0.1056144536
2702.15360	0.1054163873
2700.72389	0.1052315459
2699.29418	0.1050532386
2697.86447	0.1048781350
2696.43476	0.1047053114
2695.00505	0.1045328900
2693.57534	0.1043581292
2692.14563	0.1041772217
2690.71592	0.1039863229
2689.28620	0.1037828550
2687.85649	0.1035698503
2686.42678	0.1033584699
2684.99707	0.1031634659
2683.56736	0.1029923707
2682.13765	0.1028365046
2680.70794	0.1026740298
2679.27823	0.1024839282
2677.84852	0.1022623554
2676.41881	0.1020249501
2674.98910	0.1017964780
2673.55938	0.1015947238
2672.12967	0.1014214978
2670.69996	0.1012658030
2669.27025	0.1011112630
2667.84054	0.1009446084
2666.41083	0.1007597595
2664.98112	0.1005585492
2663.55141	0.1003495678
2662.12170	0.1001440734
2660.69199	0.0999504179
2659.26228	0.0997711048
2657.83256	0.0996031985
2656.40285	0.0994436294
2654.97314	0.0992920846
2653.54343	0.0991507098
2652.11372	0.0990192294
2650.68401	0.0988915265
2649.25430	0.0987559408
2647.82459	0.0986020342
2646.39488	0.0984288007
2644.96517	0.0982468054
2643.53546	0.0980733931
2642.10575	0.0979217067
2640.67603	0.0977930352
2639.24632	0.0976770073
2637.81661	0.0975601673
2636.38690	0.0974338949
2634.95719	0.0972965583
2633.52748	0.0971502587
2632.09777	0.0969960839
2630.66806	0.0968336165
2629.23835	0.0966632888
2627.80864	0.0964896604
2626.37893	0.0963218212
2624.94921	0.0961703658
2623.51950	0.0960437879
2622.08979	0.0959448889
2620.66008	0.0958680511
2619.23037	0.0958005264
2617.80066	0.0957263708
2616.37095	0.0956337005
2614.94124	0.0955197662
2613.51153	0.0953909606
2612.08182	0.0952580348
2610.65211	0.0951310173
2609.22239	0.0950162113
2607.79268	0.0949146822
2606.36297	0.0948230550
2604.93326	0.0947348922
2603.50355	0.0946430191
2602.07384	0.0945435613
2600.64413	0.0944387913
2599.21442	0.0943342075
2597.78471	0.0942343771
2596.35500	0.0941381380
2594.92529	0.0940394402
2593.49557	0.0939327031
2592.06586	0.0938186049
2590.63615	0.0937050432
2589.20644	0.0936043262
2587.77673	0.0935258567
2586.34702	0.0934716314
2584.91731	0.0934343264
2583.48760	0.0934021324
2582.05789	0.0933647752
2580.62818	0.0933185965
2579.19847	0.0932664499
2577.76875	0.0932138637
2576.33904	0.0931646824
2574.90933	0.0931192264
2573.47962	0.0930757001
2572.04991	0.0930311531
2570.62020	0.0929833725
2569.19049	0.0929315537
2567.76078	0.0928780511
2566.33107	0.0928284526
2564.90136	0.0927903801
2563.47165	0.0927689672
2562.04193	0.0927627459
2560.61222	0.0927631631
2559.18251	0.0927579105
2557.75280	0.0927379727
2556.32309	0.0927039087
2554.89338	0.0926663876
2553.46367	0.0926398560
2552.03396	0.0926334485
2550.60425	0.0926437303
2549.17454	0.0926577672
2547.74483	0.0926625058
2546.31511	0.0926545262
2544.88540	0.0926420987
2543.45569	0.0926382169
2542.02598	0.0926513895
2540.59627	0.0926791728
2539.16656	0.0927098021
2537.73685	0.0927295759
2536.30714	0.0927294195
2534.87743	0.0927100331
2533.44772	0.0926819891
2532.01801	0.0926594660
2530.58829	0.0926537961
2529.15858	0.0926672816
2527.72887	0.0926937833
2526.29916	0.0927235857
2524.86945	0.0927490965
2523.43974	0.0927672684
2522.01003	0.0927783921
2520.58032	0.0927847028
2519.15061	0.0927900523
2517.72090	0.0927995741
2516.29119	0.0928181335
2514.86147	0.0928475931
2513.43176	0.0928855464
2512.00205	0.0929268450
2510.57234	0.0929673091
2509.14263	0.0930059180
2507.71292	0.0930438861
2506.28321	0.0930822417
2504.85350	0.0931187123
2503.42379	0.0931482241
2501.99408	0.0931655765
2500.56437	0.0931696817
2499.13465	0.0931652263
2497.70494	0.0931619182
2496.27523	0.0931693316
2494.84552	0.0931922719
2493.41581	0.0932290405
2491.98610	0.0932732821
2490.55639	0.0933179185
2489.12668	0.0933576524
2487.69697	0.0933887511
2486.26726	0.0934091955
2484.83755	0.0934179574
2483.40784	0.0934160948
2481.97812	0.0934076905
2480.54841	0.0934000462
2479.11870	0.0934021324
2477.68899	0.0934220999
2476.25928	0.0934627354
2474.82957	0.0935185999
2473.39986	0.0935757831
2471.97015	0.0936173052
2470.54044	0.0936317518
2469.11073	0.0936195180
2467.68102	0.0935935751
2466.25130	0.0935709998
2464.82159	0.0935648680
2463.39188	0.0935773551
2461.96217	0.0936018601
2460.53246	0.0936287642
2459.10275	0.0936510861
2457.67304	0.0936674029
2456.24333	0.0936800241
2454.81362	0.0936923921
2453.38391	0.0937077105
2451.95420	0.0937287137
2450.52448	0.0937558264
2449.09477	0.0937866047
2447.66506	0.0938147157
2446.23535	0.0938325748
2444.80564	0.0938350186
2443.37593	0.0938219428
2441.94622	0.0937980413
2440.51651	0.0937692225
2439.08680	0.0937389955
2437.65709	0.0937085152
2436.22738	0.0936785787
2434.79766	0.0936526284
2433.36795	0.0936351866
2431.93824	0.0936276093
2430.50853	0.0936256200
2429.07882	0.0936208367
2427.64911	0.0936064497
2426.21940	0.0935820416
2424.78969	0.0935540423
2423.35998	0.0935312510
2421.93027	0.0935191736
2420.50056	0.0935166702
2419.07084	0.0935168043
2417.64113	0.0935105383
2416.21142	0.0934908614
2414.78171	0.0934557393
2413.35200	0.0934082642
2411.92229	0.0933545977
2410.49258	0.0933019072
2409.06287	0.0932564065
2407.63316	0.0932228118
2406.20345	0.0932025686
2404.77374	0.0931927860
2403.34402	0.0931849554
2401.91431	0.0931678265
2400.48460	0.0931327939
2399.05489	0.0930781066
2397.62518	0.0930097625
2396.19547	0.0929373950
2394.76576	0.0928682387
2393.33605	0.0928051174
2391.90634	0.0927465633
2390.47663	0.0926892981
2389.04692	0.0926302075
2387.61720	0.0925652087
2386.18749	0.0924886167
2384.75778	0.0923926309
2383.32807	0.0922682136
2381.89836	0.0921064764
2380.46865	0.0919006914
2379.03894	0.0916487128
2377.60923	0.0913555399
2376.17952	0.0910336748
2374.74981	0.0907007158
2373.32010	0.0903749093
2371.89038	0.0900685787
2370.46067	0.0897856355
2369.03096	0.0895237401
2367.60125	0.0892814398
2366.17154	0.0890653580
2364.74183	0.0888907015
2363.31212	0.0887719840
2361.88241	0.0887109190
2360.45270	0.0886950716
2359.02299	0.0887172371
2357.59328	0.0887926593
2356.16356	0.0889479220
2354.73385	0.0891786292
2353.30414	0.0894293040
2351.87443	0.0896231979
2350.44472	0.0897043794
2349.01501	0.0896526650
2347.58530	0.0894815624
2346.15559	0.0892316848
2344.72588	0.0889678076
2343.29617	0.0887625217
2341.86646	0.0886591002
2340.43674	0.0886453539
2339.00703	0.0886693224
2337.57732	0.0886826292
2336.14761	0.0886654854
2334.71790	0.0886263028
2333.28819	0.0885860547
2331.85848	0.0885622799
2330.42877	0.0885571390
2328.99906	0.0885579959
2327.56935	0.0885492638
2326.13964	0.0885278061
2324.70993	0.0885079727
2323.28021	0.0885136575
2321.85050	0.0885598361
2320.42079	0.0886386856
2318.99108	0.0887206644
2317.56137	0.0887729377
2316.13166	0.0887778252
2314.70195	0.0887405723
2313.27224	0.0886833891
2311.84253	0.0886315107
2310.41282	0.0886024311
2308.98311	0.0886012912
2307.55339	0.0886216089
2306.12368	0.0886484310
2304.69397	0.0886632279
2303.26426	0.0886506215
2301.83455	0.0886071920
2300.40484	0.0885443762
2298.97513	0.0884812847
2297.54542	0.0884320959
2296.11571	0.0883975402
2294.68600	0.0883670151
2293.25629	0.0883283094
2291.82657	0.0882757157
2290.39686	0.0882112309
2288.96715	0.0881407335
2287.53744	0.0880696476
2286.10773	0.0880006924
2284.67802	0.0879324749
2283.24831	0.0878598094
2281.81860	0.0877759606
2280.38889	0.0876779780
2278.95918	0.0875702202
2277.52947	0.0874631926
2276.09975	0.0873664171
2274.67004	0.0872831419
2273.24033	0.0872095078
2271.81062	0.0871388540
2270.38091	0.0870670080
2268.95120	0.0869936571
2267.52149	0.0869204849
2266.09178	0.0868490860
2264.66207	0.0867802277
2263.23236	0.0867140740
2261.80265	0.0866503865
2260.37293	0.0865877271
2258.94322	0.0865236223
2257.51351	0.0864557326
2256.08380	0.0863836855
2254.65409	0.0863083974
2253.22438	0.0862315819
2251.79467	0.0861525610
2250.36496	0.0860691741
2248.93525	0.0859799013
2247.50554	0.0858879015
2246.07583	0.0858007148
2244.64611	0.0857270136
2243.21640	0.0856706947
2241.78669	0.0856281295
2240.35698	0.0855900794
2238.92727	0.0855477452
2237.49756	0.0854969025
2236.06785	0.0854400173
2234.63814	0.0853837356
2233.20843	0.0853335112
2231.77872	0.0852894038
2230.34901	0.0852445439
2228.91929	0.0851889476
2227.48958	0.0851160735
2226.05987	0.0850274414
2224.63016	0.0849307328
2223.20045	0.0848343596
2221.77074	0.0847421288
2220.34103	0.0846533179
2218.91132	0.0845656842
2217.48161	0.0844786689
2216.05190	0.0843936503
2214.62219	0.0843114182
2213.19247	0.0842313394
2211.76276	0.0841511786
2210.33305	0.0840689242
2208.90334	0.0839837044
2207.47363	0.0838963315
2206.04392	0.0838095173
2204.61421	0.0837267935
2203.18450	0.0836506784
2201.75479	0.0835814178
2200.32508	0.0835163444
2198.89537	0.0834524408
2197.46565	0.0833883211
2196.03594	0.0833252817
2194.60623	0.0832646042
2193.17652	0.0832046196
2191.74681	0.0831387565
2190.31710	0.0830577910
2188.88739	0.0829553530
2187.45768	0.0828335062
2186.02797	0.0827036798
2184.59826	0.0825809389
2183.16855	0.0824765787
2181.73883	0.0823916346
2180.30912	0.0823177919
2178.87941	0.0822437033
2177.44970	0.0821628794
2176.01999	0.0820768699
2174.59028	0.0819918215
2173.16057	0.0819102004
2171.73086	0.0818260312
2170.30115	0.0817277133
2168.87144	0.0816073418
2167.44173	0.0814692676
2166.01202	0.0813292041
2164.58230	0.0812050998
2163.15259	0.0811057761
2161.72288	0.0810286850
2160.29317	0.0809647366
2158.86346	0.0809052587
2157.43375	0.0808439553
2156.00404	0.0807748586
2154.57433	0.0806918442
2153.14462	0.0805926323
2151.71491	0.0804821104
2150.28520	0.0803704932
2148.85548	0.0802657828
2147.42577	0.0801685080
2145.99606	0.0800727829
2144.56635	0.0799725354
2143.13664	0.0798672065
2141.70693	0.0797618106
2140.27722	0.0796624124
2138.84751	0.0795706511
2137.41780	0.0794832930
2135.98809	0.0793956146
2134.55838	0.0793052167
2133.12866	0.0792139694
2131.69895	0.0791256279
2130.26924	0.0790428296
2128.83953	0.0789646730
2127.40982	0.0788877755
2125.98011	0.0788093731
2124.55040	0.0787286237
2123.12069	0.0786463991
2121.69098	0.0785643458
2120.26127	0.0784837678
2118.83156	0.0784054622
2117.40184	0.0783291012
2115.97213	0.0782517865
2114.54242	0.0781690329
2113.11271	0.0780769661
2111.68300	0.0779761896
2110.25329	0.0778722093
2108.82358	0.0777719095
2107.39387	0.0776790679
2105.96416	0.0775908455
2104.53445	0.0774996802
2103.10474	0.0773995891
2101.67502	0.0772888586
2100.24531	0.0771712214
2098.81560	0.0770530924
2097.38589	0.0769414827
2095.95618	0.0768419877
2094.52647	0.0767578632
2093.09676	0.0766875967
2091.66705	0.0766247511
2090.23734	0.0765599385
2088.80763	0.0764853731
2087.37792	0.0763990059
2085.94820	0.0763036460
2084.51849	0.0762036741
2083.08878	0.0761005878
2081.65907	0.0759931058
2080.22936	0.0758798048
2078.79965	0.0757617131
2077.36994	0.0756423697
2075.94023	0.0755264089
2074.51052	0.0754165202
2073.08081	0.0753122568
2071.65110	0.0752102733
2070.22138	0.0751065835
2068.79167	0.0749996305
2067.36196	0.0748916268
2065.93225	0.0747879222
2064.50254	0.0746920854
2063.07283	0.0746029392
2061.64312	0.0745152235
2060.21341	0.0744239911
2058.78370	0.0743282288
2057.35399	0.0742311403
2055.92428	0.0741377920
2054.49456	0.0740508139
2053.06485	0.0739706680
2051.63514	0.0738947690
2050.20543	0.0738176033
2048.77572	0.0737328678
2047.34601	0.0736361519
2045.91630	0.0735288560
2044.48659	0.0734187961
2043.05688	0.0733158737
2041.62717	0.0732246786
2040.19746	0.0731407925
2038.76774	0.0730548128
2037.33803	0.0729606748
2035.90832	0.0728601888
2034.47861	0.0727604553
2033.04890	0.0726655200
2031.61919	0.0725724772
2030.18948	0.0724739432
2028.75977	0.0723661035
2027.33006	0.0722533762
2025.90035	0.0721450448
2024.47064	0.0720478892
2023.04092	0.0719602928
2021.61121	0.0718740523
2020.18150	0.0717805400
2018.75179	0.0716764778
2017.32208	0.0715651140
2015.89237	0.0714539587
2014.46266	0.0713504329
2013.03295	0.0712582171
2011.60324	0.0711772442
2010.17353	0.0711035132
2008.74382	0.0710321665
2007.31411	0.0709603205
2005.88439	0.0708882064
2004.45468	0.0708179995
2003.02497	0.0707513914
2001.59526	0.0706858635
2000.16555	0.0706154183
1998.73584	0.0705347732
1997.30613	0.0704449862
1995.87642	0.0703551546
1994.44671	0.0702776611
1993.01700	0.0702195689
1991.58729	0.0701776743
1990.15757	0.0701407939
1988.72786	0.0700989068
1987.29815	0.0700475276
1985.86844	0.0699867904
1984.43873	0.0699177608
1983.00902	0.0698431507
1981.57931	0.0697695166
1980.14960	0.0697069392
1978.71989	0.0696624145
1977.29018	0.0696336627
1975.86047	0.0696085989
1974.43075	0.0695740804
1973.00104	0.0695237070
1971.57133	0.0694612488
1970.14162	0.0693968236
1968.71191	0.0693425238
1967.28220	0.0693064481
1965.85249	0.0692891106
1964.42278	0.0692815557
1962.99307	0.0692694113
1961.56336	0.0692408383
1960.13365	0.0691935718
1958.70393	0.0691358373
1957.27422	0.0690808073
1955.84451	0.0690397471
1954.41480	0.0690154433
1952.98509	0.0690007210
1951.55538	0.0689822435
1950.12567	0.0689468086
1948.69596	0.0688891038
1947.26625	0.0688149408
1945.83654	0.0687389076
1944.40683	0.0686779618
1942.97711	0.0686453357
1941.54740	0.0686462149
1940.11769	0.0686752647
1938.68798	0.0687180459
1937.25827	0.0687555298
1935.82856	0.0687726587
1934.39885	0.0687639862
1932.96914	0.0687333569
1931.53943	0.0686877519
1930.10972	0.0686303005
1928.68001	0.0685609058
1927.25029	0.0684804916
1925.82058	0.0683943108
1924.39087	0.0683115944
1922.96116	0.0682437718
1921.53145	0.0682034865
1920.10174	0.0682009384
1918.67203	0.0682345927
1917.24232	0.0682865754
1915.81261	0.0683309510
1914.38290	0.0683520138
1912.95319	0.0683545545
1911.52347	0.0683567375
1910.09376	0.0683733448
1908.66405	0.0684041902
1907.23434	0.0684367046
1905.80463	0.0684572160
1904.37492	0.0684603080
1902.94521	0.0684497356
1901.51550	0.0684333965
1900.08579	0.0684178844
1898.65608	0.0684044883
1897.22637	0.0683889762
1895.79665	0.0683670416
1894.36694	0.0683412254
1892.93723	0.0683223531
1891.50752	0.0683223829
1890.07781	0.0683444068
1888.64810	0.0683804005
1887.21839	0.0684175491
1885.78868	0.0684467331
1884.35897	0.0684639141
1882.92926	0.0684699193
1881.49955	0.0684701577
1880.06983	0.0684750080
1878.64012	0.0684934631
1877.21041	0.0685235336
1875.78070	0.0685501173
1874.35099	0.0685549378
1872.92128	0.0685312301
1871.49157	0.0684902221
1870.06186	0.0684567615
1868.63215	0.0684555545
1867.20244	0.0684970096
1865.77273	0.0685724244
1864.34301	0.0686621293
1862.91330	0.0687477067
1861.48359	0.0688191876
1860.05388	0.0688753352
1858.62417	0.0689199865
1857.19446	0.0689562708
1855.76475	0.0689849779
1854.33504	0.0690061897
1852.90533	0.0690201744
1851.47562	0.0690244213
1850.04591	0.0690137446
1848.61619	0.0689885244
1847.18648	0.0689660162
1845.75677	0.0689781532
1844.32706	0.0690485165
1842.89735	0.0691661611
1841.46764	0.0692919642
1840.03793	0.0693925172
1838.60822	0.0694584548
1837.17851	0.0694971234
1835.74880	0.0695173889
1834.31909	0.0695261657
1832.88938	0.0695336983
1831.45966	0.0695557892
1830.02995	0.0696068034
1828.60024	0.0696905851
1827.17053	0.0697997957
1825.74082	0.0699239969
1824.31111	0.0700530037
1822.88140	0.0701763332
1821.45169	0.0702848434
1820.02198	0.0703767911
1818.59227	0.0704586878
1817.16256	0.0705383644
1815.73284	0.0706183985
1814.30313	0.0706982315
1812.87342	0.0707813427
1811.44371	0.0708748624
1810.01400	0.0709786415
1808.58429	0.0710799098
1807.15458	0.0711632147
1805.72487	0.0712270811
1804.29516	0.0712865591
1802.86545	0.0713604093
1801.43574	0.0714560971
1800.00602	0.0715648979
1798.57631	0.0716707930
1797.14660	0.0717642307
1795.71689	0.0718511790
1794.28718	0.0719555244
1792.85747	0.0721083358
1791.42776	0.0723227486
1789.99805	0.0725746751
1788.56834	0.0728201121
1787.13863	0.0730316266
1785.70892	0.0732141733
1784.27920	0.0733898282
1782.84949	0.0735727027
1781.41978	0.0737569779
1779.99007	0.0739262253
1778.56036	0.0740726739
1777.13065	0.0742018446
1775.70094	0.0743286610
1774.27123	0.0744762272
1772.84152	0.0746744424
1771.41181	0.0749424696
1769.98210	0.0752624199
1768.55238	0.0755881146
1767.12267	0.0758883730
1765.69296	0.0761706084
1764.26325	0.0764677823
1762.83354	0.0768093020
1761.40383	0.0772044584
1759.97412	0.0776465014
1758.54441	0.0781247765
1757.11470	0.0786277875
1755.68499	0.0791428983
1754.25528	0.0796675086
1752.82556	0.0802283809
1751.39585	0.0808773190
1749.96614	0.0816462338
1748.53643	0.0825013369
1747.10672	0.0833650157
1745.67701	0.0841883793
1744.24730	0.0849771649
1742.81759	0.0857520178
1741.38788	0.0865064338
1739.95817	0.0872138068
1738.52846	0.0878711864
1737.09874	0.0885292366
1735.66903	0.0892745033
1734.23932	0.0901738256
1732.80961	0.0912197232
1731.37990	0.0923404098
1729.95019	0.0934731066
1728.52048	0.0946060345
1727.09077	0.0957598016
1725.66106	0.0969538540
1724.23135	0.0981914401
1722.80164	0.0994752645
1721.37192	0.1008482352
1719.94221	0.1024301425
1718.51250	0.1043825224
1717.08279	0.1067409441
1715.65308	0.1092612669
1714.22337	0.1115912423
1712.79366	0.1135907173
1711.36395	0.1153639555
1709.93424	0.1170934066
1708.50453	0.1189216077
1707.07482	0.1209306046
1705.64510	0.1231852770
1704.21539	0.1258017272
1702.78568	0.1289879382
1701.35597	0.1329992414
1699.92626	0.1379641891
1698.49655	0.1436389685
1697.06684	0.1494020075
1695.63713	0.1546548307
1694.20742	0.1591717005
1692.77771	0.1630461812
1691.34800	0.1664937884
1689.91828	0.1697696149
1688.48857	0.1731982827
1687.05886	0.1772026718
1685.62915	0.1821400970
1684.19944	0.1878650934
1682.76973	0.1935671121
1681.34002	0.1984817535
1679.91031	0.2025548220
1678.48060	0.2062290311
1677.05089	0.2099722326
1675.62118	0.2140444666
1674.19147	0.2184939981
1672.76175	0.2232771814
1671.33204	0.2283454537
1669.90233	0.2335895598
1668.47262	0.2387930304
1667.04291	0.2437707484
1665.61320	0.2485377043
1664.18349	0.2532411814
1662.75378	0.2578948736
1661.32407	0.2622196376
1659.89436	0.2658078969
1658.46465	0.2684125006
1657.03493	0.2700070143
1655.60522	0.2706159949
1654.17551	0.2701840997
1652.74580	0.2686942220
1651.31609	0.2663805783
1649.88638	0.2635909319
1648.45667	0.2605084479
1647.02696	0.2572193444
1645.59725	0.2539147735
1644.16754	0.2508547008
1642.73783	0.2481474131
1641.30811	0.2456576675
1639.87840	0.2430959791
1638.44869	0.2401595116
1637.01898	0.2367019206
1635.58927	0.2328897715
1634.15956	0.2290837318
1632.72985	0.2254558653
1631.30014	0.2218501121
1629.87043	0.2179547399
1628.44072	0.2134682983
1627.01101	0.2081983238
1625.58129	0.2021713555
1624.15158	0.1956791878
1622.72187	0.1891147941
1621.29216	0.1826932132
1619.86245	0.1763522625
1618.43274	0.1699334234
1617.00303	0.1634804010
1615.57332	0.1573494971
1614.14361	0.1519425809
1612.71390	0.1473630816
1611.28419	0.1434060782
1609.85447	0.1398048997
1608.42476	0.1364312470
1606.99505	0.1333200634
1605.56534	0.1305597723
1604.13563	0.1281820834
1602.70592	0.1261529326
1601.27621	0.1244284287
1599.84650	0.1229830980
1598.41679	0.1217897460
1596.98708	0.1208066940
1595.55737	0.1199987307
1594.12765	0.1193615198
1592.69794	0.1189127862
1591.26823	0.1186620966
1589.83852	0.1186018512
1588.40881	0.1187278628
1586.97910	0.1190475374
1585.54939	0.1195571125
1584.11968	0.1202186868
1582.68997	0.1209770143
1581.26026	0.1218112335
1579.83055	0.1227664426
1578.40083	0.1239273623
1576.97112	0.1253349036
1575.54141	0.1269181371
1574.11170	0.1285467297
1572.68199	0.1301680952
1571.25228	0.1318500787
1569.82257	0.1336843371
1568.39286	0.1356562227
1566.96315	0.1376237124
1565.53344	0.1394468397
1564.10373	0.1411402822
1562.67401	0.1429322809
1561.24430	0.1452465802
1559.81459	0.1485097706
1558.38488	0.1526186317
1556.95517	0.1566879898
1555.52546	0.1599228084
1554.09575	0.1622749120
1552.66604	0.1640341729
1551.23633	0.1653836817
1549.80662	0.1663281471
1548.37691	0.1667962223
1546.94719	0.1667431593
1545.51748	0.1661648154
1544.08777	0.1650353670
1542.65806	0.1632883847
1541.22835	0.1609719247
1539.79864	0.1584177911
1538.36893	0.1560041457
1536.93922	0.1538019180
1535.50951	0.1516478211
1534.07980	0.1493912637
1532.65009	0.1470091194
1531.22037	0.1445748657
1529.79066	0.1421574801
1528.36095	0.1397551447
1526.93124	0.1373188347
1525.50153	0.1348188072
1524.07182	0.1322906166
1522.64211	0.1298281997
1521.21240	0.1275281310
1519.78269	0.1254231483
1518.35298	0.1234526336
1516.92327	0.1214968786
1515.49356	0.1194439158
1514.06384	0.1172252148
1512.63413	0.1147824228
1511.20442	0.1119940728
1509.77471	0.1086552292
1508.34500	0.1046693400
1506.91529	0.1004391983
1505.48558	0.0967825055
1504.05587	0.0941191688
1502.62616	0.0922009274
1501.19645	0.0905850753
1499.76674	0.0889761001
1498.33702	0.0872947872
1496.90731	0.0856316015
1495.47760	0.0841142237
1494.04789	0.0827800035
1492.61818	0.0815747008
1491.18847	0.0804415420
1489.75876	0.0793920383
1488.32905	0.0785065591
1486.89934	0.0778632611
1485.46963	0.0774731934
1484.03992	0.0772895962
1482.61020	0.0772574618
1481.18049	0.0773437545
1479.75078	0.0775438398
1478.32107	0.0778810978
1476.89136	0.0784107372
1475.46165	0.0792052075
1474.03194	0.0802860558
1472.60223	0.0815294161
1471.17252	0.0826964825
1469.74281	0.0836072788
1468.31310	0.0842354819
1466.88338	0.0846556127
1465.45367	0.0849594995
1464.02396	0.0852087960
1462.59425	0.0854311287
1461.16454	0.0856485292
1459.73483	0.0859016851
1458.30512	0.0862276331
1456.87541	0.0865878537
1455.44570	0.0868507624
1454.01599	0.0869012550
1452.58628	0.0867256075
1451.15656	0.0863687843
1449.72685	0.0858751237
1448.29714	0.0852789730
1446.86743	0.0846167356
1445.43772	0.0839299709
1444.00801	0.0832475424
1442.57830	0.0825692639
1441.14859	0.0818680003
1439.71888	0.0811094567
1438.28917	0.0802818537
1436.85946	0.0794239268
1435.42974	0.0786214843
1434.00003	0.0779612586
1432.57032	0.0774895027
1431.14061	0.0772156864
1429.71090	0.0771336555
1428.28119	0.0772283301
1426.85148	0.0774731636
1425.42177	0.0778361335
1423.99206	0.0782953724
1422.56235	0.0788494423
1421.13264	0.0795087889
1419.70292	0.0802684575
1418.27321	0.0810816586
1416.84350	0.0818757191
1415.41379	0.0826015696
1413.98408	0.0832600594
1412.55437	0.0838838071
1411.12466	0.0845039859
1409.69495	0.0851310343
1408.26524	0.0857542604
1406.83553	0.0863514766
1405.40582	0.0868958458
1403.97610	0.0873528346
1402.54639	0.0876810178
1401.11668	0.0878447518
1399.68697	0.0878282785
1398.25726	0.0876384154
1396.82755	0.0872975737
1395.39784	0.0868340060
1393.96813	0.0862753689
1392.53842	0.0856418163
1391.10871	0.0849393234
1389.67900	0.0841621757
1388.24928	0.0833034590
1386.81957	0.0823692009
1385.38986	0.0813821480
1383.96015	0.0803695843
1382.53044	0.0793501139
1381.10073	0.0783353597
1379.67102	0.0773404762
1378.24131	0.0763920322
1376.81160	0.0755261034
1375.38189	0.0747824237
1373.95218	0.0741916224
1372.52246	0.0737616420
1371.09275	0.0734655485
1369.66304	0.0732441396
1368.23333	0.0730267316
1366.80362	0.0727594793
1365.37391	0.0724311247
1363.94420	0.0720803440
1362.51449	0.0717767477
1361.08478	0.0715798214
1359.65507	0.0715060830
1358.22536	0.0715308636
1356.79565	0.0716134608
1355.36593	0.0717166886
1353.93622	0.0718132481
1352.50651	0.0718845949
1351.07680	0.0719205439
1349.64709	0.0719182268
1348.21738	0.0718799829
1346.78767	0.0718121752
1345.35796	0.0717232525
1343.92825	0.0716246665
1342.49854	0.0715327561
1341.06883	0.0714703500
1339.63911	0.0714629665
1338.20940	0.0715260133
1336.77969	0.0716546476
1335.34998	0.0718265027
1333.92027	0.0720195323
1332.49056	0.0722254664
1331.06085	0.0724496543
1329.63114	0.0727006495
1328.20143	0.0729801506
1326.77172	0.0732823163
1325.34201	0.0736019015
1323.91229	0.0739390850
1322.48258	0.0742965937
1321.05287	0.0746719465
1319.62316	0.0750537515
1318.19345	0.0754257888
1316.76374	0.0757739171
1315.33403	0.0760903433
1313.90432	0.0763741955
1312.47461	0.0766300261
1311.04490	0.0768684968
1309.61519	0.0771036372
1308.18547	0.0773478374
1306.75576	0.0776057988
1305.32605	0.0778717473
1303.89634	0.0781321526
1302.46663	0.0783736855
1301.03692	0.0785894692
1299.60721	0.0787803531
1298.17750	0.0789496154
1296.74779	0.0790965557
1295.31808	0.0792151764
1293.88837	0.0792998746
1292.45865	0.0793531016
1291.02894	0.0793873146
1289.59923	0.0794179887
1288.16952	0.0794560984
1286.73981	0.0795038119
1285.31010	0.0795589611
1283.88039	0.0796209574
1282.45068	0.0796926394
1281.02097	0.0797781423
1279.59126	0.0798801780
1278.16155	0.0800009444
1276.73183	0.0801444724
1275.30212	0.0803205594
1273.87241	0.0805447102
1272.44270	0.0808366537
1271.01299	0.0812168047
1269.58328	0.0817003176
1268.15357	0.0822947621
1266.72386	0.0830013528
1265.29415	0.0838199109
1263.86444	0.0847504660
1262.43473	0.0857914761
1261.00501	0.0869330689
1259.57530	0.0881524086
1258.14559	0.0894138440
1256.71588	0.0906737670
1255.28617	0.0918862671
1253.85646	0.0930048600
1252.42675	0.0939843804
1250.99704	0.0947826728
1249.56733	0.0953641981
1248.13762	0.0957050398
1246.70791	0.0957987830
1245.27819	0.0956583172
1243.84848	0.0953142270
1242.41877	0.0948064029
1240.98906	0.0941754654
1239.55935	0.0934554860
1238.12964	0.0926733688
1236.69993	0.0918506384
1235.27022	0.0910060257
1233.84051	0.0901567191
1232.41080	0.0893160328
1230.98109	0.0884909630
1229.55137	0.0876788944
1228.12166	0.0868677050
1226.69195	0.0860400125
1225.26224	0.0851801336
1223.83253	0.0842810571
1222.40282	0.0833468586
1220.97311	0.0823892877
1219.54340	0.0814216435
1218.11369	0.0804550946
1216.68398	0.0794977173
1215.25427	0.0785575807
1213.82455	0.0776451677
1212.39484	0.0767721087
1210.96513	0.0759490132
1209.53542	0.0751837716
1208.10571	0.0744824335
1206.67600	0.0738544539
1205.24629	0.0733139738
1203.81658	0.0728769600
1202.38687	0.0725563839
1200.95716	0.0723584890
1199.52745	0.0722850785
1198.09774	0.0723378211
1196.66802	0.0725203753
1195.23831	0.0728349015
1193.80860	0.0732746869
1192.37889	0.0738195330
1190.94918	0.0744368657
1189.51947	0.0750896633
1188.08976	0.0757487416
1186.66005	0.0764027759
1185.23034	0.0770640671
1183.80063	0.0777643546
1182.37092	0.0785432830
1180.94120	0.0794312656
1179.51149	0.0804356858
1178.08178	0.0815369710
1176.65207	0.0826965719
1175.22236	0.0838736594
1173.79265	0.0850393102
1172.36294	0.0861836597
1170.93323	0.0873121992
1169.50352	0.0884377733
1168.07381	0.0895743892
1166.64410	0.0907363519
1165.21438	0.0919401646
1163.78467	0.0932034031
1162.35496	0.0945376083
1160.92525	0.0959396213
1159.49554	0.0973895490
1158.06583	0.0988585055
1156.63612	0.1003204137
1155.20641	0.1017602235
1153.77670	0.1031736061
1152.34699	0.1045622304
1150.91728	0.1059317216
1149.48756	0.1072940379
1148.05785	0.1086689532
1146.62814	0.1100821942
1145.19843	0.1115569398
1143.76872	0.1131101176
1142.33901	0.1147539988
1140.90930	0.1165032908
1139.47959	0.1183780953
1138.04988	0.1203971133
1136.62017	0.1225657612
1135.19046	0.1248670220
1133.76074	0.1272651702
1132.33103	0.1297187805
1130.90132	0.1321948320
1129.47161	0.1346736848
1128.04190	0.1371455938
1126.61219	0.1396044195
1125.18248	0.1420433968
1123.75277	0.1444550306
1122.32306	0.1468321234
1120.89335	0.1491681933
1119.46364	0.1514583975
1118.03392	0.1537034363
1116.60421	0.1559096128
1115.17450	0.1580817997
1113.74479	0.1602157801
1112.31508	0.1622952670
1110.88537	0.1643008888
1109.45566	0.1662182957
1108.02595	0.1680380404
1106.59624	0.1697433144
1105.16653	0.1713042557
1103.73682	0.1726837009
1102.30710	0.1738563776
1100.87739	0.1748221964
1099.44768	0.1756064296
1098.01797	0.1762477905
1096.58826	0.1767858267
1095.15855	0.1772525460
1093.72884	0.1776659638
1092.29913	0.1780245304
1090.86942	0.1783037484
1089.43971	0.1784591824
1088.01000	0.1784356534
1086.58028	0.1781817675
1085.15057	0.1776632816
1083.72086	0.1768715084
1082.29115	0.1758232564
1080.86144	0.1745497584
1079.43173	0.1730832011
1078.00202	0.1714475304
1076.57231	0.1696591377
1075.14260	0.1677335203
1073.71289	0.1656886786
1072.28318	0.1635421813
1070.85346	0.1613063365
1069.42375	0.1589895338
1067.99404	0.1566028893
1066.56433	0.1541655064
1065.13462	0.1516974568
1063.70491	0.1492060423
1062.27520	0.1466732770
1060.84549	0.1440571249
1059.41578	0.1413086206
1057.98607	0.1383946389
1056.55636	0.1353154331
1055.12664	0.1321084052
1053.69693	0.1288372129
1052.26722	0.1255712360
1050.83751	0.1223655790
1049.40780	0.1192514747
1047.97809	0.1162392721
1046.54838	0.1133290306
1045.11867	0.1105214506
1043.68896	0.1078229174
1042.25925	0.1052453294
1040.82954	0.1028020307
1039.39983	0.1005058214
1037.97011	0.0983638316
1036.54040	0.0963758901
1035.11069	0.0945305303
1033.68098	0.0928056985
1032.25127	0.0911698118
1030.82156	0.0895883888
1029.39185	0.0880322680
1027.96214	0.0864883363
1026.53243	0.0849641934
1025.10272	0.0834850371
1023.67301	0.0820856616
1022.24329	0.0808021054
1020.81358	0.0796686336
1019.38387	0.0787173286
1017.95416	0.0779753178
1016.52445	0.0774605125
1015.09474	0.0771763846
1013.66503	0.0771136805
1012.23532	0.0772565380
1010.80561	0.0775915310
1009.37590	0.0781136230
1007.94619	0.0788239613
1006.51647	0.0797224641
1005.08676	0.0807990208
1003.65705	0.0820292532
1002.22734	0.0833772197
1000.79763	0.0848011896
999.36792	0.0862551033
997.93821	0.0876864344
996.50850	0.0890353546
995.07879	0.0902386010
993.64908	0.0912389532
992.21937	0.0919917375
990.78965	0.0924677327
989.35994	0.0926512629
987.93023	0.0925394148
986.50052	0.0921423510
985.07081	0.0914824158
983.64110	0.0905906856
982.21139	0.0895033553
980.78168	0.0882571265
979.35197	0.0868851617
977.92226	0.0854141116
976.49255	0.0838628933
975.06283	0.0822464228
973.63312	0.0805826336
972.20341	0.0788946077
970.77370	0.0772092193
969.34399	0.0755508095
967.91428	0.0739392117
966.48457	0.0723915771
965.05486	0.0709242001
963.62515	0.0695517808
962.19544	0.0682849661
960.76573	0.0671306252
959.33601	0.0660944358
957.90630	0.0651816651
956.47659	0.0643940419
955.04688	0.0637256354
953.61717	0.0631637201
952.18746	0.0626946017
950.75775	0.0623100884
949.32804	0.0620096028
947.89833	0.0617960766
946.46862	0.0616695546
945.03891	0.0616208054
943.60919	0.0616280846
942.17948	0.0616604835
940.74977	0.0616863817
939.32006	0.0616851598
937.89035	0.0616528168
936.46064	0.0615975969
935.03093	0.0615284555
933.60122	0.0614444725
932.17151	0.0613331385
930.74180	0.0611789487
929.31209	0.0609759837
927.88237	0.0607376881
926.45266	0.0604960695
925.02295	0.0602895282
923.59324	0.0601444468
922.16353	0.0600603744
920.73382	0.0600071996
919.30411	0.0599374212
917.87440	0.0598060042
916.44469	0.0595865473
915.01498	0.0592766069
913.58527	0.0588933006
912.15555	0.0584660806
910.72584	0.0580319166
909.29613	0.0576339811
907.86642	0.0573153272
906.43671	0.0571096726
905.00700	0.0570301712
903.57729	0.0570684895
902.14758	0.0572069362
900.71787	0.0574348234
899.28816	0.0577556938
897.85845	0.0581796393
896.42873	0.0587084703
894.99902	0.0593277626
893.56931	0.0600122847
892.13960	0.0607358404
890.70989	0.0614753999
889.28018	0.0622083619
887.85047	0.0629117712
886.42076	0.0635688528
884.99105	0.0641767904
883.56134	0.0647480413
882.13163	0.0652996749
880.70192	0.0658420473
879.27220	0.0663764328
877.84249	0.0669031143
876.41278	0.0674261749
874.98307	0.0679497197
873.55336	0.0684671924
872.12365	0.0689567253
870.69394	0.0693909377
869.26423	0.0697506741
867.83452	0.0700329319
866.40481	0.0702431872
864.97510	0.0703819692
863.54538	0.0704345107
862.11567	0.0703768209
860.68596	0.0701879859
859.25625	0.0698650703
857.82654	0.0694275647
856.39683	0.0689112172
854.96712	0.0683521032
853.53741	0.0677738488
852.10770	0.0671839491
850.67799	0.0665827245
849.24828	0.0659759045
847.81856	0.0653801933
846.38885	0.0648148134
844.95914	0.0642903820
843.52943	0.0638040081
842.09972	0.0633478239
840.67001	0.0629208982
839.24030	0.0625332296
837.81059	0.0621973686
836.38088	0.0619152896
834.95117	0.0616710745
833.52146	0.0614330247
832.09174	0.0611624978
830.66203	0.0608284101
829.23232	0.0604194552
827.80261	0.0599507317
826.37290	0.0594592430
824.94319	0.0589883216
823.51348	0.0585720018
822.08377	0.0582273826
820.65406	0.0579576604
819.22435	0.0577585921
817.79464	0.0576208867
816.36492	0.0575287007
814.93521	0.0574611798
813.50550	0.0574009381
812.07579	0.0573417954
810.64608	0.0572916977
809.21637	0.0572665036
807.78666	0.0572805032
806.35695	0.0573379248
804.92724	0.0574313365
803.49753	0.0575452223
802.06782	0.0576634519
800.63810	0.0577730201
799.20839	0.0578636304
797.77868	0.0579238795
796.34897	0.0579453856
794.91926	0.0579336397
793.48955	0.0579172820
792.05984	0.0579407103
790.63013	0.0580402911
789.20042	0.0582227632
787.77071	0.0584654585
786.34100	0.0587325320
784.91128	0.0589916743
783.48157	0.0592159033
782.05186	0.0593777969
780.62215	0.0594533645
779.19244	0.0594373681
777.76273	0.0593580604
776.33302	0.0592710860
774.90331	0.0592346527
773.47360	0.0592836067
772.04389	0.0594202094
770.61418	0.0596220903
769.18446	0.0598561242
767.75475	0.0600894764
766.32504	0.0602959245
764.89533	0.0604632199
763.46562	0.0605971292
762.03591	0.0607186034
760.60620	0.0608509220
759.17649	0.0610046126
757.74678	0.0611706637
756.31707	0.0613294728
754.88736	0.0614685677
753.45764	0.0615961961
752.02793	0.0617396124
750.59822	0.0619254112
749.16851	0.0621557869
747.73880	0.0624004528
746.30909	0.0626121238
744.87938	0.0627570450
743.44967	0.0628354475
742.01996	0.0628781095
740.59025	0.0629208684
739.16054	0.0629815534
737.73082	0.0630596653
736.30111	0.0631573126
734.87140	0.0632966980
733.44169	0.0635158196
732.01198	0.0638425052
730.58227	0.0642703921
729.15256	0.0647563636
727.72285	0.0652422756
726.29314	0.0656854883
724.86343	0.0660772249
723.43372	0.0664412230
722.00401	0.0668138042
720.57429	0.0672207549
719.14458	0.0676641241
717.71487	0.0681283474
716.28516	0.0685993433
714.85545	0.0690787435
713.42574	0.0695782378
711.99603	0.0700990856
710.56632	0.0706177279
709.13661	0.0710913166
707.70690	0.0714809671
706.27719	0.0717717409
704.84747	0.0719741285
703.41776	0.0721072033
701.98805	0.0721819028
700.55834	0.0721981972
699.12863	0.0721571147
697.69892	0.0720745996
696.26921	0.0719828680
694.83950	0.0719159320
693.40979	0.0718888715
691.98008	0.0718894526
690.55037	0.0718911290
689.12065	0.0718792155
687.69094	0.0718666017
686.26123	0.0718841329
684.83152	0.0719532669
683.40181	0.0720680580
681.97210	0.0722047091
680.54239	0.0723456517
679.11268	0.0724909529
677.68297	0.0726431534
676.25326	0.0727879703
674.82355	0.0728949979
673.39383	0.0729436502
671.96412	0.0729450285
670.53441	0.0729419962
669.10470	0.0729790181
667.67499	0.0730534941
666.24528	0.0731100664
664.81557	0.0731102526
663.38586	0.0730789155
661.95615	0.0730817989
660.52644	0.0731760561
659.09673	0.0733668134
657.66701	0.0735916570
656.23730	0.0737550780
654.80759	0.0737936050
653.37788	0.0737166107
651.94817	0.0735932216
650.51846	0.0735071823
649.08875	0.0735117793
647.65904	0.0736077279
646.22933	0.0737501979
644.79962	0.0738774016
643.36991	0.0739459023
641.94019	0.0739509612
640.51048	0.0739194751
639.08077	0.0738776177
637.65106	0.0738206655
636.22135	0.0737123713
634.79164	0.0735130385
633.36193	0.0732084066
631.93222	0.0728088766
630.50251	0.0723282173
629.07280	0.0717649013
627.64309	0.0711100027
626.21337	0.0703739896
624.78366	0.0696113631
623.35395	0.0689148009
621.92424	0.0683745816
620.49453	0.0680252165
619.06482	0.0678191185
617.63511	0.0676463023
616.20540	0.0673927367
614.77569	0.0670029894
613.34598	0.0665119067
611.91627	0.0660277680
610.48655	0.0656788945
609.05684	0.0655556917
607.62713	0.0656773597
606.19742	0.0659961849
604.76771	0.0664294884
603.33800	0.0668994933
601.90829	0.0673613027
600.47858	0.0678057149
599.04887	0.0682342276
