3997.47168	0.0293257032
3996.04197	0.0293108299
3994.61226	0.0293111913
3993.18255	0.0293257851
3991.75284	0.0293466393
3990.32312	0.0293656662
3988.89341	0.0293781869
3987.46370	0.0293844175
3986.03399	0.0293883514
3984.60428	0.0293949991
3983.17457	0.0294082109
3981.74486	0.0294272415
3980.31515	0.0294444170
3978.88544	0.0294472147
3977.45573	0.0294246096
3976.02602	0.0293750558
3974.59630	0.0293121040
3973.16659	0.0292582437
3971.73688	0.0292331018
3970.30717	0.0292436797
3968.87746	0.0292795654
3967.44775	0.0293215476
3966.01804	0.0293502398
3964.58833	0.0293545891
3963.15862	0.0293370299
3961.72891	0.0293105543
3960.29920	0.0292915571
3958.86948	0.0292875692
3957.43977	0.0292908922
3956.01006	0.0292853266
3954.58035	0.0292598233
3953.15064	0.0292197019
3951.72093	0.0291828234
3950.29122	0.0291667655
3948.86151	0.0291748773
3947.43180	0.0291964170
3946.00209	0.0292175412
3944.57238	0.0292350687
3943.14266	0.0292585772
3941.71295	0.0293012764
3940.28324	0.0293678828
3938.85353	0.0294471588
3937.42382	0.0295160860
3935.99411	0.0295495577
3934.56440	0.0295344293
3933.13469	0.0294790454
3931.70498	0.0294115916
3930.27527	0.0293629803
3928.84556	0.0293463357
3927.41585	0.0293511264
3925.98613	0.0293544214
3924.55642	0.0293363649
3923.12671	0.0292891748
3921.69700	0.0292201452
3920.26729	0.0291479416
3918.83758	0.0290984195
3917.40787	0.0290937144
3915.97816	0.0291404668
3914.54845	0.0292223878
3913.11874	0.0293060392
3911.68903	0.0293578841
3910.25931	0.0293528158
3908.82960	0.0292788465
3907.39989	0.0291357618
3905.97018	0.0289390963
3904.54047	0.0287267826
3903.11076	0.0285622329
3901.68105	0.0285104830
3900.25134	0.0285949670
3898.82163	0.0287796371
3897.39192	0.0289986171
3895.96221	0.0291946996
3894.53249	0.0293367803
3893.10278	0.0294189863
3891.67307	0.0294561610
3890.24336	0.0294705946
3888.81365	0.0294779092
3887.38394	0.0294778813
3885.95423	0.0294597913
3884.52452	0.0294146650
3883.09481	0.0293488838
3881.66510	0.0292826947
3880.23539	0.0292370059
3878.80567	0.0292165726
3877.37596	0.0292054974
3875.94625	0.0291786697
3874.51654	0.0291172415
3873.08683	0.0290231649
3871.65712	0.0289204475
3870.22741	0.0288383346
3868.79770	0.0287895389
3867.36799	0.0287649222
3865.93828	0.0287545230
3864.50857	0.0287650060
3863.07885	0.0288120285
3861.64914	0.0288953800
3860.21943	0.0289850570
3858.78972	0.0290308297
3857.36001	0.0289846156
3855.93030	0.0288351532
3854.50059	0.0286553819
3853.07088	0.0285982285
3851.64117	0.0287569575
3850.21146	0.0290600285
3848.78175	0.0293681044
3847.35203	0.0295833349
3845.92232	0.0296659488
3844.49261	0.0296183079
3843.06290	0.0294766631
3841.63319	0.0293054301
3840.20348	0.0291792527
3838.77377	0.0291534774
3837.34406	0.0292370617
3835.91435	0.0293891262
3834.48464	0.0295503605
3833.05493	0.0296775624
3831.62521	0.0297550652
3830.19550	0.0297884438
3828.76579	0.0297916308
3827.33608	0.0297760237
3825.90637	0.0297460835
3824.47666	0.0296994317
3823.04695	0.0296331067
3821.61724	0.0295518581
3820.18753	0.0294776876
3818.75782	0.0294475183
3817.32811	0.0294950306
3815.89839	0.0296249036
3814.46868	0.0298046898
3813.03897	0.0299798623
3811.60926	0.0300987009
3810.17955	0.0301276091
3808.74984	0.0300610531
3807.32013	0.0299241729
3805.89042	0.0297654886
3804.46071	0.0296377633
3803.03100	0.0295782648
3801.60129	0.0296034534
3800.17157	0.0297141783
3798.74186	0.0298957191
3797.31215	0.0301198140
3795.88244	0.0303505734
3794.45273	0.0305556003
3793.02302	0.0307100173
3791.59331	0.0307983756
3790.16360	0.0308163818
3788.73389	0.0307772569
3787.30418	0.0307170469
3785.87447	0.0306856800
3784.44475	0.0307223536
3783.01504	0.0308283046
3781.58533	0.0309632458
3780.15562	0.0310718436
3778.72591	0.0311173070
3777.29620	0.0310999267
3775.86649	0.0310426205
3774.43678	0.0309709478
3773.00707	0.0309046227
3771.57736	0.0308620147
3770.14765	0.0308607928
3768.71794	0.0309085138
3767.28822	0.0309917144
3765.85851	0.0310787950
3764.42880	0.0311369691
3762.99909	0.0311440602
3761.56938	0.0310978703
3760.13967	0.0310152341
3758.70996	0.0309209116
3757.28025	0.0308253020
3755.85054	0.0307102390
3754.42083	0.0305438805
3752.99112	0.0303160977
3751.56140	0.0300708190
3750.13169	0.0298935845
3748.70198	0.0298507437
3747.27227	0.0299497694
3745.84256	0.0301655959
3744.41285	0.0304691531
3742.98314	0.0308209676
3741.55343	0.0311605241
3740.12372	0.0314229243
3738.69401	0.0315623097
3737.26430	0.0315718837
3735.83458	0.0315024368
3734.40487	0.0314512812
3732.97516	0.0314935856
3731.54545	0.0316228047
3730.11574	0.0317793824
3728.68603	0.0319125056
3727.25632	0.0320051461
3725.82661	0.0320726149
3724.39690	0.0321478695
3722.96719	0.0322612524
3721.53748	0.0324207395
3720.10776	0.0326061510
3718.67805	0.0327800028
3717.24834	0.0329030976
3715.81863	0.0329483375
3714.38892	0.0329150222
3712.95921	0.0328451060
3711.52950	0.0328188054
3710.09979	0.0329009220
3708.67008	0.0330809802
3707.24037	0.0332901217
3705.81066	0.0334691405
3704.38094	0.0336030573
3702.95123	0.0337172672
3701.52152	0.0338538960
3700.09181	0.0340425521
3698.66210	0.0342808440
3697.23239	0.0345390774
3695.80268	0.0347812288
3694.37297	0.0349840932
3692.94326	0.0351473354
3691.51355	0.0352942124
3690.08384	0.0354591981
3688.65412	0.0356636718
3687.22441	0.0359024592
3685.79470	0.0361578092
3684.36499	0.0364135578
3682.93528	0.0366548449
3681.50557	0.0368666165
3680.07586	0.0370398685
3678.64615	0.0371854678
3677.21644	0.0373378061
3675.78673	0.0375426561
3674.35702	0.0378358811
3672.92730	0.0382413790
3671.49759	0.0387776829
3670.06788	0.0394463055
3668.63817	0.0402079262
3667.20846	0.0409936719
3665.77875	0.0417452455
3664.34904	0.0424364358
3662.91933	0.0430625528
3661.48962	0.0436225049
3660.05991	0.0441199690
3658.63020	0.0445734262
3657.20048	0.0450173616
3655.77077	0.0454806387
3654.34106	0.0459702797
3652.91135	0.0464853644
3651.48164	0.0470524356
3650.05193	0.0477337837
3648.62222	0.0485713705
3647.19251	0.0495173894
3645.76280	0.0504723303
3644.33309	0.0513778925
3642.90338	0.0522347204
3641.47366	0.0530650131
3640.04395	0.0538846739
3638.61424	0.0546939373
3637.18453	0.0554785021
3635.75482	0.0562161058
3634.32511	0.0568944402
3632.89540	0.0575395189
3631.46569	0.0582363494
3630.03598	0.0591007471
3628.60627	0.0601811074
3627.17656	0.0613854937
3625.74684	0.0625636876
3624.31713	0.0636352673
3622.88742	0.0646053404
3621.45771	0.0655126497
3620.02800	0.0663871989
3618.59829	0.0672386810
3617.16858	0.0680637285
3615.73887	0.0688603818
3614.30916	0.0696401671
3612.87945	0.0704335347
3611.44974	0.0712824091
3610.02003	0.0722139105
3608.59031	0.0732135549
3607.16060	0.0742298216
3605.73089	0.0752155706
3604.30118	0.0761562288
3602.87147	0.0770604834
3601.44176	0.0779370070
3600.01205	0.0787868723
3598.58234	0.0796141177
3597.15263	0.0804338828
3595.72292	0.0812595338
3594.29321	0.0820907578
3592.86349	0.0829224810
3591.43378	0.0837691128
3590.00407	0.0846667141
3588.57436	0.0856408402
3587.14465	0.0866654292
3585.71494	0.0876643211
3584.28523	0.0885676444
3582.85552	0.0893585756
3581.42581	0.0900703594
3579.99610	0.0907594189
3578.56639	0.0914840475
3577.13667	0.0922817513
3575.70696	0.0931480303
3574.27725	0.0940369666
3572.84754	0.0948922932
3571.41783	0.0956879333
3569.98812	0.0964472517
3568.55841	0.0972283259
3567.12870	0.0980814025
3565.69899	0.0990064144
3564.26928	0.0999537408
3562.83957	0.1008662954
3561.40985	0.1017107889
3559.98014	0.1024845466
3558.55043	0.1032095253
3557.12072	0.1039221659
3555.69101	0.1046563983
3554.26130	0.1054285020
3552.83159	0.1062372848
3551.40188	0.1070787460
3549.97217	0.1079556942
3548.54246	0.1088720039
3547.11275	0.1098169461
3545.68303	0.1107618436
3544.25332	0.1116739213
3542.82361	0.1125382334
3541.39390	0.1133635119
3539.96419	0.1141707897
3538.53448	0.1149773821
3537.10477	0.1157855392
3535.67506	0.1165803075
3534.24535	0.1173425168
3532.81564	0.1180680171
3531.38593	0.1187760755
3529.95621	0.1194983497
3528.52650	0.1202523857
3527.09679	0.1210282519
3525.66708	0.1218015328
3524.23737	0.1225567982
3522.80766	0.1232966334
3521.37795	0.1240306422
3519.94824	0.1247626469
3518.51853	0.1254895627
3517.08882	0.1262074113
3515.65911	0.1269109845
3514.22939	0.1275957823
3512.79968	0.1282637715
3511.36997	0.1289312541
3509.94026	0.1296236664
3508.51055	0.1303560734
3507.08084	0.1311202943
3505.65113	0.1318944395
3504.22142	0.1326624602
3502.79171	0.1334231794
3501.36200	0.1341775805
3499.93229	0.1349168718
3498.50257	0.1356267929
3497.07286	0.1363009214
3495.64315	0.1369457841
3494.21344	0.1375745535
3492.78373	0.1381990165
3491.35402	0.1388264745
3489.92431	0.1394598335
3488.49460	0.1400924027
3487.06489	0.1407111436
3485.63518	0.1413055360
3484.20547	0.1418813318
3482.77575	0.1424563825
3481.34604	0.1430438161
3479.91633	0.1436390132
3478.48662	0.1442289799
3477.05691	0.1448093653
3475.62720	0.1453889459
3474.19749	0.1459762007
3472.76778	0.1465655267
3471.33807	0.1471395791
3469.90836	0.1476817429
3468.47865	0.1481851786
3467.04893	0.1486515403
3465.61922	0.1490896940
3464.18951	0.1495147794
3462.75980	0.1499443650
3461.33009	0.1503879875
3459.90038	0.1508410871
3458.47067	0.1512918323
3457.04096	0.1517333090
3455.61125	0.1521685272
3454.18154	0.1526025832
3452.75183	0.1530352086
3451.32212	0.1534621418
3449.89240	0.1538827419
3448.46269	0.1543009728
3447.03298	0.1547210962
3445.60327	0.1551455557
3444.17356	0.1555777490
3442.74385	0.1560237557
3441.31414	0.1564853787
3439.88443	0.1569525748
3438.45472	0.1574078798
3437.02501	0.1578388065
3435.59530	0.1582438797
3434.16558	0.1586260945
3432.73587	0.1589805335
3431.30616	0.1592939049
3429.87645	0.1595571637
3428.44674	0.1597772241
3427.01703	0.1599769741
3425.58732	0.1601853520
3424.15761	0.1604236364
3422.72790	0.1606987864
3421.29819	0.1610016972
3419.86848	0.1613125950
3418.43876	0.1616124511
3417.00905	0.1618923694
3415.57934	0.1621565968
3414.14963	0.1624142230
3412.71992	0.1626711190
3411.29021	0.1629265994
3409.86050	0.1631751060
3408.43079	0.1634125412
3407.00108	0.1636377424
3405.57137	0.1638518870
3404.14166	0.1640559733
3402.71194	0.1642473042
3401.28223	0.1644198596
3399.85252	0.1645705551
3398.42281	0.1647071987
3396.99310	0.1648465246
3395.56339	0.1650032401
3394.13368	0.1651749164
3392.70397	0.1653411090
3391.27426	0.1654802114
3389.84455	0.1655868590
3388.41484	0.1656764597
3386.98512	0.1657727957
3385.55541	0.1658925265
3384.12570	0.1660366803
3382.69599	0.1661937684
3381.26628	0.1663467586
3379.83657	0.1664830744
3378.40686	0.1666035652
3376.97715	0.1667270958
3375.54744	0.1668829173
3374.11773	0.1670908779
3372.68802	0.1673429906
3371.25830	0.1676017195
3369.82859	0.1678155363
3368.39888	0.1679450125
3366.96917	0.1679836512
3365.53946	0.1679610908
3364.10975	0.1679272503
3362.68004	0.1679265350
3361.25033	0.1679761410
3359.82062	0.1680678427
3358.39091	0.1681860685
3356.96120	0.1683261693
3355.53148	0.1684911698
3354.10177	0.1686729789
3352.67206	0.1688412726
3351.24235	0.1689588130
3349.81264	0.1690116823
3348.38293	0.1690258235
3346.95322	0.1690532863
3345.52351	0.1691391468
3344.09380	0.1692933142
3342.66409	0.1694902629
3341.23438	0.1696853936
3339.80466	0.1698396057
3338.37495	0.1699343771
3336.94524	0.1699782610
3335.51553	0.1700018048
3334.08582	0.1700460315
3332.65611	0.1701457500
3331.22640	0.1703167558
3329.79669	0.1705499738
3328.36698	0.1708159298
3326.93727	0.1710761935
3325.50756	0.1712979227
3324.07784	0.1714675426
3322.64813	0.1715941429
3321.21842	0.1717018038
3319.78871	0.1718163639
3318.35900	0.1719565988
3316.92929	0.1721352190
3315.49958	0.1723632067
3314.06987	0.1726484895
3312.64016	0.1729894280
3311.21045	0.1733664125
3309.78074	0.1737438738
3308.35102	0.1740804166
3306.92131	0.1743433923
3305.49160	0.1745200008
3304.06189	0.1746244431
3302.63218	0.1746924818
3301.20247	0.1747681051
3299.77276	0.1748819351
3298.34305	0.1750343293
3296.91334	0.1751943678
3295.48363	0.1753152013
3294.05392	0.1753555536
3292.62421	0.1752973348
3291.19449	0.1751489192
3289.76478	0.1749369651
3288.33507	0.1746916175
3286.90536	0.1744327247
3285.47565	0.1741667241
3284.04594	0.1738943607
3282.61623	0.1736196429
3281.18652	0.1733535975
3279.75681	0.1731044054
3278.32710	0.1728664637
3276.89739	0.1726149768
3275.46767	0.1723122001
3274.03796	0.1719206423
3272.60825	0.1714148670
3271.17854	0.1707906872
3269.74883	0.1700672805
3268.31912	0.1692849547
3266.88941	0.1684923172
3265.45970	0.1677294523
3264.02999	0.1670148969
3262.60028	0.1663469523
3261.17057	0.1657125950
3259.74085	0.1650967747
3258.31114	0.1644840539
3256.88143	0.1638577729
3255.45172	0.1632071733
3254.02201	0.1625368595
3252.59230	0.1618696749
3251.16259	0.1612324715
3249.73288	0.1606362760
3248.30317	0.1600676477
3246.87346	0.1594998688
3245.44375	0.1589142084
3244.01403	0.1583146900
3242.58432	0.1577271968
3241.15461	0.1571856737
3239.72490	0.1567152441
3238.29519	0.1563197970
3236.86548	0.1559778601
3235.43577	0.1556477547
3234.00606	0.1552844346
3232.57635	0.1548595130
3231.14664	0.1543738395
3229.71693	0.1538544744
3228.28721	0.1533399671
3226.85750	0.1528600752
3225.42779	0.1524249464
3223.99808	0.1520243436
3222.56837	0.1516359299
3221.13866	0.1512397975
3219.70895	0.1508279294
3218.27924	0.1504072398
3216.84953	0.1499920040
3215.41982	0.1495927572
3213.99011	0.1492091715
3212.56039	0.1488318443
3211.13068	0.1484493911
3209.70097	0.1480548382
3208.27126	0.1476463526
3206.84155	0.1472273469
3205.41184	0.1468036324
3203.98213	0.1463799626
3202.55242	0.1459544748
3201.12271	0.1455189586
3199.69300	0.1450662911
3198.26329	0.1446008980
3196.83357	0.1441425085
3195.40386	0.1437148303
3193.97415	0.1433277279
3192.54444	0.1429657787
3191.11473	0.1425957233
3189.68502	0.1421860605
3188.25531	0.1417240351
3186.82560	0.1412216872
3185.39589	0.1407050937
3183.96618	0.1402001381
3182.53647	0.1397204697
3181.10675	0.1392656565
3179.67704	0.1388250142
3178.24733	0.1383840591
3176.81762	0.1379301548
3175.38791	0.1374551058
3173.95820	0.1369568557
3172.52849	0.1364386827
3171.09878	0.1359085292
3169.66907	0.1353752464
3168.23936	0.1348455697
3166.80965	0.1343231052
3165.37993	0.1338080019
3163.95022	0.1333016008
3162.52051	0.1328073442
3161.09080	0.1323305666
3159.66109	0.1318753958
3158.23138	0.1314402223
3156.80167	0.1310159713
3155.37196	0.1305880249
3153.94225	0.1301421523
3152.51254	0.1296694428
3151.08283	0.1291703135
3149.65311	0.1286518425
3148.22340	0.1281258166
3146.79369	0.1276061237
3145.36398	0.1271076947
3143.93427	0.1266429573
3142.50456	0.1262140572
3141.07485	0.1258083731
3139.64514	0.1254027188
3138.21543	0.1249767020
3136.78572	0.1245264485
3135.35601	0.1240653917
3133.92629	0.1236112639
3132.49658	0.1231714636
3131.06687	0.1227397621
3129.63716	0.1223085225
3128.20745	0.1218827143
3126.77774	0.1214818135
3125.34803	0.1211267039
3123.91832	0.1208216324
3122.48861	0.1205464676
3121.05890	0.1202651560
3119.62919	0.1199428067
3118.19948	0.1195620224
3116.76976	0.1191291958
3115.34005	0.1186708361
3113.91034	0.1182213575
3112.48063	0.1178060248
3111.05092	0.1174287051
3109.62121	0.1170718521
3108.19150	0.1167114899
3106.76179	0.1163352877
3105.33208	0.1159515381
3103.90237	0.1155800819
3102.47266	0.1152351350
3101.04294	0.1149149463
3099.61323	0.1146066859
3098.18352	0.1143025607
3096.75381	0.1140075922
3095.32410	0.1137351915
3093.89439	0.1134931147
3092.46468	0.1132742241
3091.03497	0.1130605489
3089.60526	0.1128342897
3088.17555	0.1125889570
3086.74584	0.1123288795
3085.31612	0.1120621487
3083.88641	0.1117909700
3082.45670	0.1115086153
3081.02699	0.1112011224
3079.59728	0.1108558625
3078.16757	0.1104684025
3076.73786	0.1100487411
3075.30815	0.1096216217
3073.87844	0.1092181206
3072.44873	0.1088612601
3071.01902	0.1085494906
3069.58930	0.1082520559
3068.15959	0.1079225391
3066.72988	0.1075270772
3065.30017	0.1070671529
3063.87046	0.1065788940
3062.44075	0.1061092615
3061.01104	0.1056851372
3059.58133	0.1053022668
3058.15162	0.1049361154
3056.72191	0.1045630574
3055.29220	0.1041723192
3053.86248	0.1037646458
3052.43277	0.1033461839
3051.00306	0.1029267833
3049.57335	0.1025196835
3048.14364	0.1021372676
3046.71393	0.1017797962
3045.28422	0.1014281735
3043.85451	0.1010508910
3042.42480	0.1006235853
3040.99509	0.1001459658
3039.56538	0.0996423066
3038.13566	0.0991444960
3036.70595	0.0986713246
3035.27624	0.0982193500
3033.84653	0.0977707282
3032.41682	0.0973112658
3030.98711	0.0968416408
3029.55740	0.0963773057
3028.12769	0.0959378183
3026.69798	0.0955356956
3025.26827	0.0951725245
3023.83856	0.0948432758
3022.40884	0.0945419893
3020.97913	0.0942645073
3019.54942	0.0940059498
3018.11971	0.0937559903
3016.69000	0.0934970230
3015.26029	0.0932076052
3013.83058	0.0928714126
3012.40087	0.0924853161
3010.97116	0.0920627341
3009.54145	0.0916283205
3008.11174	0.0912092477
3006.68202	0.0908277854
3005.25231	0.0904980525
3003.82260	0.0902258232
3002.39289	0.0900094956
3000.96318	0.0898408294
2999.53347	0.0897085741
2998.10376	0.0896020383
2996.67405	0.0895154700
2995.24434	0.0894451141
2993.81463	0.0893865302
2992.38492	0.0893329456
2990.95520	0.0892821029
2989.52549	0.0892448723
2988.09578	0.0892450660
2986.66607	0.0893070623
2985.23636	0.0894369036
2983.80665	0.0896147043
2982.37694	0.0898039341
2980.94723	0.0899761543
2979.51752	0.0901268721
2978.08781	0.0902744830
2976.65810	0.0904419720
2975.22838	0.0906382650
2973.79867	0.0908534080
2972.36896	0.0910698399
2970.93925	0.0912775993
2969.50954	0.0914809480
2968.07983	0.0916887373
2966.65012	0.0918986797
2965.22041	0.0920880735
2963.79070	0.0922186226
2962.36099	0.0922553092
2960.93128	0.0921836048
2959.50157	0.0920137465
2958.07185	0.0917689577
2956.64214	0.0914668217
2955.21243	0.0911104828
2953.78272	0.0906987414
2952.35301	0.0902439207
2950.92330	0.0897827670
2949.49359	0.0893662050
2948.06388	0.0890360549
2946.63417	0.0888052359
2945.20446	0.0886573866
2943.77475	0.0885630101
2942.34503	0.0884987041
2940.91532	0.0884552896
2939.48561	0.0884331763
2938.05590	0.0884355232
2936.62619	0.0884614140
2935.19648	0.0885051787
2933.76677	0.0885535851
2932.33706	0.0885854810
2930.90735	0.0885751322
2929.47764	0.0885000378
2928.04793	0.0883509666
2926.61821	0.0881348699
2925.18850	0.0878695697
2923.75879	0.0875727534
2922.32908	0.0872519687
2920.89937	0.0868995488
2919.46966	0.0864970535
2918.03995	0.0860243291
2916.61024	0.0854704231
2915.18053	0.0848393291
2913.75082	0.0841483772
2912.32111	0.0834217295
2910.89139	0.0826851130
2909.46168	0.0819636211
2908.03197	0.0812828466
2906.60226	0.0806660950
2905.17255	0.0801299959
2903.74284	0.0796778053
2902.31313	0.0792983770
2900.88342	0.0789688975
2899.45371	0.0786622539
2898.02400	0.0783557594
2896.59429	0.0780378059
2895.16457	0.0777107626
2893.73486	0.0773875266
2892.30515	0.0770833269
2890.87544	0.0768079087
2889.44573	0.0765650272
2888.01602	0.0763579607
2886.58631	0.0761950389
2885.15660	0.0760890841
2883.72689	0.0760490820
2882.29718	0.0760727003
2880.86747	0.0761446953
2879.43775	0.0762380734
2878.00804	0.0763174072
2876.57833	0.0763424635
2875.14862	0.0762754455
2873.71891	0.0760933682
2872.28920	0.0757976547
2870.85949	0.0754149184
2869.42978	0.0749851391
2868.00007	0.0745462924
2866.57036	0.0741253570
2865.14065	0.0737380534
2863.71093	0.0733913332
2862.28122	0.0730855316
2860.85151	0.0728141442
2859.42180	0.0725658983
2857.99209	0.0723302960
2856.56238	0.0721013993
2855.13267	0.0718746036
2853.70296	0.0716380700
2852.27325	0.0713658407
2850.84354	0.0710228980
2849.41383	0.0705814585
2847.98411	0.0700402930
2846.55440	0.0694337934
2845.12469	0.0688214898
2843.69498	0.0682649091
2842.26527	0.0678013563
2840.83556	0.0674319193
2839.40585	0.0671275109
2837.97614	0.0668489784
2836.54643	0.0665660650
2835.11672	0.0662668720
2833.68701	0.0659561977
2832.25729	0.0656477883
2830.82758	0.0653575957
2829.39787	0.0650982410
2827.96816	0.0648752823
2826.53845	0.0646838024
2825.10874	0.0645101294
2823.67903	0.0643375441
2822.24932	0.0641545504
2820.81961	0.0639614388
2819.38990	0.0637692288
2817.96019	0.0635936111
2816.53047	0.0634461045
2815.10076	0.0633271858
2813.67105	0.0632257536
2812.24134	0.0631229132
2810.81163	0.0630006790
2809.38192	0.0628506467
2807.95221	0.0626781210
2806.52250	0.0624990575
2805.09279	0.0623322912
2803.66308	0.0621899888
2802.23337	0.0620735660
2800.80366	0.0619746707
2799.37394	0.0618812889
2797.94423	0.0617838986
2796.51452	0.0616773106
2795.08481	0.0615581945
2793.65510	0.0614223182
2792.22539	0.0612638928
2790.79568	0.0610796288
2789.36597	0.0608729608
2787.93626	0.0606545433
2786.50655	0.0604371876
2785.07684	0.0602308251
2783.64712	0.0600421242
2782.21741	0.0598779023
2780.78770	0.0597463846
2779.35799	0.0596531518
2777.92828	0.0595921576
2776.49857	0.0595425442
2775.06886	0.0594753623
2773.63915	0.0593676195
2772.20944	0.0592128150
2770.77973	0.0590232238
2769.35002	0.0588192530
2767.92030	0.0586197302
2766.49059	0.0584349558
2765.06088	0.0582679659
2763.63117	0.0581181124
2762.20146	0.0579844043
2760.77175	0.0578657016
2759.34204	0.0577598922
2757.91233	0.0576641038
2756.48262	0.0575756058
2755.05291	0.0574926510
2753.62320	0.0574123114
2752.19348	0.0573278517
2750.76377	0.0572268404
2749.33406	0.0570948534
2747.90435	0.0569234192
2746.47464	0.0567180663
2745.04493	0.0565002561
2743.61522	0.0563001744
2742.18551	0.0561421886
2740.75580	0.0560315289
2739.32609	0.0559519008
2737.89638	0.0558757633
2736.46666	0.0557815358
2735.03695	0.0556654632
2733.60724	0.0555397458
2732.17753	0.0554200038
2730.74782	0.0553117618
2729.31811	0.0552071631
2727.88840	0.0550925359
2726.45869	0.0549584068
2725.02898	0.0548050515
2723.59927	0.0546387136
2722.16956	0.0544654578
2720.73984	0.0542885438
2719.31013	0.0541101210
2717.88042	0.0539371036
2716.45071	0.0537808575
2715.02100	0.0536519922
2713.59129	0.0535516590
2712.16158	0.0534674749
2710.73187	0.0533795953
2709.30216	0.0532737039
2707.87245	0.0531492308
2706.44274	0.0530185364
2705.01302	0.0528953336
2703.58331	0.0527841821
2702.15360	0.0526801310
2700.72389	0.0525752865
2699.29418	0.0524660014
2697.86447	0.0523545183
2696.43476	0.0522448793
2695.00505	0.0521374233
2693.57534	0.0520287417
2692.14563	0.0519142263
2690.71592	0.0517932922
2689.28620	0.0516715460
2687.85649	0.0515604131
2686.42678	0.0514725409
2684.99707	0.0514149852
2683.56736	0.0513837487
2682.13765	0.0513642840
2680.70794	0.0513375401
2679.27823	0.0512881018
2677.84852	0.0512089022
2676.41881	0.0511027537
2674.98910	0.0509793684
2673.55938	0.0508510396
2672.12967	0.0507272296
2670.69996	0.0506104082
2669.27025	0.0504952148
2667.84054	0.0503736883
2666.41083	0.0502426028
2664.98112	0.0501072593
2663.55141	0.0499799438
2662.12170	0.0498729050
2660.69199	0.0497916415
2659.26228	0.0497319885
2657.83256	0.0496827029
2656.40285	0.0496313646
2654.97314	0.0495709181
2653.54343	0.0495023020
2652.11372	0.0494333766
2650.68401	0.0493721180
2649.25430	0.0493205264
2647.82459	0.0492729992
2646.39488	0.0492208675
2644.96517	0.0491592623
2643.53546	0.0490882173
2642.10575	0.0490112454
2640.67603	0.0489320531
2639.24632	0.0488532819
2637.81661	0.0487788431
2636.38690	0.0487135649
2634.95719	0.0486612953
2633.52748	0.0486213975
2632.09777	0.0485870913
2630.66806	0.0485484451
2629.23835	0.0484973565
2627.80864	0.0484315418
2626.37893	0.0483550318
2624.94921	0.0482754670
2623.51950	0.0481991023
2622.08979	0.0481290519
2620.66008	0.0480660126
2619.23037	0.0480110459
2617.80066	0.0479658879
2616.37095	0.0479296073
2614.94124	0.0478960797
2613.51153	0.0478558466
2612.08182	0.0478042886
2610.65211	0.0477468148
2609.22239	0.0476973802
2607.79268	0.0476680286
2606.36297	0.0476587527
2604.93326	0.0476574525
2603.50355	0.0476493351
2602.07384	0.0476273522
2600.64413	0.0475953482
2599.21442	0.0475623049
2597.78471	0.0475338884
2596.35500	0.0475088768
2594.92529	0.0474830605
2593.49557	0.0474536084
2592.06586	0.0474220216
2590.63615	0.0473918207
2589.20644	0.0473664142
2587.77673	0.0473479107
2586.34702	0.0473383255
2584.91731	0.0473394804
2583.48760	0.0473523848
2582.05789	0.0473749600
2580.62818	0.0474014059
2579.19847	0.0474238396
2577.76875	0.0474360250
2576.33904	0.0474377871
2574.90933	0.0474354476
2573.47962	0.0474388264
2572.04991	0.0474556573
2570.62020	0.0474849679
2569.19049	0.0475163870
2567.76078	0.0475356504
2566.33107	0.0475333668
2564.90136	0.0475123152
2563.47165	0.0474866144
2562.04193	0.0474736467
2560.61222	0.0474844202
2559.18251	0.0475183502
2557.75280	0.0475659743
2556.32309	0.0476159453
2554.89338	0.0476606898
2553.46367	0.0476985946
2552.03396	0.0477324836
2550.60425	0.0477680229
2549.17454	0.0478114560
2547.74483	0.0478674360
2546.31511	0.0479364619
2544.88540	0.0480115972
2543.45569	0.0480806716
2542.02598	0.0481309891
2540.59627	0.0481553972
2539.16656	0.0481580868
2537.73685	0.0481530838
2536.30714	0.0481585227
2534.87743	0.0481881946
2533.44772	0.0482443683
2532.01801	0.0483177342
2530.58829	0.0483917780
2529.15858	0.0484525226
2527.72887	0.0484959930
2526.29916	0.0485304669
2524.86945	0.0485704727
2523.43974	0.0486274213
2522.01003	0.0487008505
2520.58032	0.0487789586
2519.15061	0.0488475487
2517.72090	0.0489005335
2516.29119	0.0489442535
2514.86147	0.0489906408
2513.43176	0.0490454696
2512.00205	0.0491025932
2510.57234	0.0491494350
2509.14263	0.0491789170
2507.71292	0.0491981953
2506.28321	0.0492244065
2504.85350	0.0492728837
2503.42379	0.0493467711
2501.99408	0.0494362488
2500.56437	0.0495260358
2499.13465	0.0496052764
2497.70494	0.0496713854
2496.27523	0.0497273430
2494.84552	0.0497770682
2493.41581	0.0498231985
2491.98610	0.0498687513
2490.55639	0.0499179997
2489.12668	0.0499758795
2487.69697	0.0500430614
2486.26726	0.0501135066
2484.83755	0.0501781516
2483.40784	0.0502318218
2481.97812	0.0502784662
2480.54841	0.0503291264
2479.11870	0.0503929034
2477.68899	0.0504695401
2476.25928	0.0505484901
2474.82957	0.0506164581
2473.39986	0.0506668091
2471.97015	0.0507030562
2470.54044	0.0507357530
2469.11073	0.0507749170
2467.68102	0.0508235693
2466.25130	0.0508767962
2464.82159	0.0509264469
2463.39188	0.0509674884
2461.96217	0.0510018691
2460.53246	0.0510383472
2459.10275	0.0510863587
2457.67304	0.0511509180
2456.24333	0.0512293205
2454.81362	0.0513131842
2453.38391	0.0513928384
2451.95420	0.0514617860
2450.52448	0.0515184142
2449.09477	0.0515652224
2447.66506	0.0516056269
2446.23535	0.0516397059
2444.80564	0.0516646355
2443.37593	0.0516777262
2441.94622	0.0516812243
2440.51651	0.0516828597
2439.08680	0.0516922474
2437.65709	0.0517149605
2436.22738	0.0517503619
2434.79766	0.0517936982
2433.36795	0.0518392585
2431.93824	0.0518820770
2430.50853	0.0519173443
2429.07882	0.0519416183
2427.64911	0.0519540459
2426.21940	0.0519587435
2424.78969	0.0519629754
2423.35998	0.0519725457
2421.93027	0.0519886501
2420.50056	0.0520081110
2419.07084	0.0520273410
2417.64113	0.0520460196
2416.21142	0.0520677306
2414.78171	0.0520967692
2413.35200	0.0521350615
2411.92229	0.0521804206
2410.49258	0.0522274189
2409.06287	0.0522699282
2407.63316	0.0523023382
2406.20345	0.0523211434
2404.77374	0.0523261055
2403.34402	0.0523209088
2401.91431	0.0523137860
2400.48460	0.0523127317
2399.05489	0.0523227490
2397.62518	0.0523433350
2396.19547	0.0523706973
2394.76576	0.0524014495
2393.33605	0.0524329953
2391.90634	0.0524611212
2390.47663	0.0524783544
2389.04692	0.0524767488
2387.61720	0.0524530299
2386.18749	0.0524117015
2384.75778	0.0523613840
2383.32807	0.0523077101
2381.89836	0.0522491410
2380.46865	0.0521761589
2379.03894	0.0520781502
2377.60923	0.0519479513
2376.17952	0.0517857969
2374.74981	0.0515975244
2373.32010	0.0513914116
2371.89038	0.0511718281
2370.46067	0.0509365201
2369.03096	0.0506760590
2367.60125	0.0503808409
2366.17154	0.0500522703
2364.74183	0.0497118421
2363.31212	0.0494041666
2361.88241	0.0491869785
2360.45270	0.0491088852
2359.02299	0.0491852090
2357.59328	0.0493873172
2356.16356	0.0496597178
2354.73385	0.0499478243
2353.30414	0.0502185412
2351.87443	0.0504585207
2350.44472	0.0506610200
2349.01501	0.0508156233
2347.58530	0.0509074144
2346.15559	0.0509218499
2344.72588	0.0508566573
2343.29617	0.0507351421
2341.86646	0.0506012738
2340.43674	0.0504939072
2339.00703	0.0504221506
2337.57732	0.0503715351
2336.14761	0.0503275283
2334.71790	0.0502889007
2333.28819	0.0502690487
2331.85848	0.0502839871
2330.42877	0.0503397062
2328.99906	0.0504265092
2327.56935	0.0505262725
2326.13964	0.0506232940
2324.70993	0.0507138483
2323.28021	0.0508037806
2321.85050	0.0509003401
2320.42079	0.0510045178
2318.99108	0.0511091873
2317.56137	0.0512058139
2316.13166	0.0512903742
2314.70195	0.0513654798
2313.27224	0.0514367223
2311.84253	0.0515065789
2310.41282	0.0515720733
2308.98311	0.0516288318
2307.55339	0.0516764447
2306.12368	0.0517202690
2304.69397	0.0517675690
2303.26426	0.0518204458
2301.83455	0.0518724807
2300.40484	0.0519128516
2298.97513	0.0519333631
2297.54542	0.0519354343
2296.11571	0.0519299209
2294.68600	0.0519311167
2293.25629	0.0519470759
2291.82657	0.0519747324
2290.39686	0.0520027131
2288.96715	0.0520193167
2287.53744	0.0520215370
2286.10773	0.0520146191
2284.67802	0.0520067997
2283.24831	0.0520013124
2281.81860	0.0519942529
2280.38889	0.0519784987
2278.95918	0.0519506037
2277.52947	0.0519134961
2276.09975	0.0518751070
2274.67004	0.0518431664
2273.24033	0.0518216677
2271.81062	0.0518095084
2270.38091	0.0518019833
2268.95120	0.0517927073
2267.52149	0.0517770462
2266.09178	0.0517541245
2264.66207	0.0517274141
2263.23236	0.0517031215
2261.80265	0.0516867936
2260.37293	0.0516809039
2258.94322	0.0516837910
2257.51351	0.0516908765
2256.08380	0.0516964160
2254.65409	0.0516969711
2253.22438	0.0516922176
2251.79467	0.0516844019
2250.36496	0.0516749285
2248.93525	0.0516645461
2247.50554	0.0516537614
2246.07583	0.0516445190
2244.64611	0.0516402908
2243.21640	0.0516427383
2241.78669	0.0516494438
2240.35698	0.0516550131
2238.92727	0.0516550429
2237.49756	0.0516494438
2236.06785	0.0516418070
2234.63814	0.0516361780
2233.20843	0.0516341962
2231.77872	0.0516360067
2230.34901	0.0516417474
2228.91929	0.0516522154
2227.48958	0.0516664721
2226.05987	0.0516802333
2224.63016	0.0516857728
2223.20045	0.0516756549
2221.77074	0.0516475514
2220.34103	0.0516054220
2218.91132	0.0515579097
2217.48161	0.0515146516
2216.05190	0.0514817759
2214.62219	0.0514601246
2213.19247	0.0514456406
2211.76276	0.0514322370
2210.33305	0.0514148101
2208.90334	0.0513930134
2207.47363	0.0513709299
2206.04392	0.0513551384
2204.61421	0.0513492227
2203.18450	0.0513521656
2201.75479	0.0513573214
2200.32508	0.0513570905
2198.89537	0.0513462499
2197.46565	0.0513244309
2196.03594	0.0512960553
2194.60623	0.0512675345
2193.17652	0.0512443781
2191.74681	0.0512288250
2190.31710	0.0512200296
2188.88739	0.0512151048
2187.45768	0.0512104742
2186.02797	0.0512034856
2184.59826	0.0511932336
2183.16855	0.0511808544
2181.73883	0.0511687994
2180.30912	0.0511590131
2178.87941	0.0511506274
2177.44970	0.0511391535
2176.01999	0.0511199050
2174.59028	0.0510928519
2173.16057	0.0510637090
2171.73086	0.0510404445
2170.30115	0.0510272570
2168.87144	0.0510205589
2167.44173	0.0510123484
2166.01202	0.0509965420
2164.58230	0.0509726442
2163.15259	0.0509445518
2161.72288	0.0509162620
2160.29317	0.0508894250
2158.86346	0.0508641638
2157.43375	0.0508421622
2156.00404	0.0508258678
2154.57433	0.0508169644
2153.14462	0.0508131497
2151.71491	0.0508071855
2150.28520	0.0507906005
2148.85548	0.0507583618
2147.42577	0.0507120155
2145.99606	0.0506585464
2144.56635	0.0506064519
2143.13664	0.0505623594
2141.70693	0.0505296737
2140.27722	0.0505105108
2138.84751	0.0505054519
2137.41780	0.0505129546
2135.98809	0.0505280159
2134.55838	0.0505436324
2133.12866	0.0505536646
2131.69895	0.0505547114
2130.26924	0.0505462214
2128.83953	0.0505280159
2127.40982	0.0505010597
2125.98011	0.0504677966
2124.55040	0.0504330806
2123.12069	0.0504017696
2121.69098	0.0503769442
2120.26127	0.0503588915
2118.83156	0.0503470898
2117.40184	0.0503418297
2115.97213	0.0503432527
2114.54242	0.0503499955
2113.11271	0.0503574684
2111.68300	0.0503601991
2110.25329	0.0503541827
2108.82358	0.0503399670
2107.39387	0.0503218323
2105.96416	0.0503056981
2104.53445	0.0502957292
2103.10474	0.0502917469
2101.67502	0.0502891913
2100.24531	0.0502808206
2098.81560	0.0502613187
2097.38589	0.0502306297
2095.95618	0.0501947999
2094.52647	0.0501624607
2093.09676	0.0501396544
2091.66705	0.0501268692
2090.23734	0.0501199849
2088.80763	0.0501155704
2087.37792	0.0501137115
2085.94820	0.0501170233
2084.51849	0.0501269586
2083.08878	0.0501400307
2081.65907	0.0501480810
2080.22936	0.0501429662
2078.79965	0.0501216985
2077.36994	0.0500885509
2075.94023	0.0500527322
2074.51052	0.0500234812
2073.08081	0.0500055030
2071.65110	0.0499964729
2070.22138	0.0499901697
2068.79167	0.0499812216
2067.36196	0.0499689654
2065.93225	0.0499583669
2064.50254	0.0499551706
2063.07283	0.0499620549
2061.64312	0.0499770716
2060.21341	0.0499953367
2058.78370	0.0500127636
2057.35399	0.0500269979
2055.92428	0.0500373095
2054.49456	0.0500430614
2053.06485	0.0500435531
2051.63514	0.0500374846
2050.20543	0.0500226691
2048.77572	0.0499964729
2047.34601	0.0499574095
2045.91630	0.0499084182
2044.48659	0.0498585925
2043.05688	0.0498201214
2041.62717	0.0498015992
2040.19746	0.0498015396
2038.76774	0.0498092920
2037.33803	0.0498120487
2035.90832	0.0498041809
2034.47861	0.0497902781
2033.04890	0.0497805513
2031.61919	0.0497818291
2030.18948	0.0497939326
2028.75977	0.0498105101
2027.33006	0.0498249978
2025.90035	0.0498333871
2024.47064	0.0498343483
2023.04092	0.0498276390
2021.61121	0.0498134717
2020.18150	0.0497934110
2018.75179	0.0497715250
2017.32208	0.0497537851
2015.89237	0.0497462973
2014.46266	0.0497525968
2013.03295	0.0497714356
2011.60324	0.0497968942
2010.17353	0.0498220064
2008.74382	0.0498432331
2007.31411	0.0498626269
2005.88439	0.0498846956
2004.45468	0.0499114096
2003.02497	0.0499394909
2001.59526	0.0499627814
2000.16555	0.0499779992
1998.73584	0.0499860458
1997.30613	0.0499915034
1995.87642	0.0499979518
1994.44671	0.0500063747
1993.01700	0.0500152931
1991.58729	0.0500231348
1990.15757	0.0500298738
1988.72786	0.0500384718
1987.29815	0.0500543006
1985.86844	0.0500820726
1984.43873	0.0501220785
1983.00902	0.0501686223
1981.57931	0.0502131954
1980.14960	0.0502497256
1978.71989	0.0502783507
1977.29018	0.0503049456
1975.86047	0.0503359847
1974.43075	0.0503737740
1973.00104	0.0504139215
1971.57133	0.0504486933
1970.14162	0.0504727103
1968.71191	0.0504887030
1967.28220	0.0505071096
1965.85249	0.0505386591
1964.42278	0.0505853370
1962.99307	0.0506389700
1961.56336	0.0506880432
1960.13365	0.0507271737
1958.70393	0.0507608913
1957.27422	0.0507975556
1955.84451	0.0508414358
1954.41480	0.0508890487
1952.98509	0.0509334616
1951.55538	0.0509716533
1950.12567	0.0510072261
1948.69596	0.0510469675
1947.26625	0.0510937572
1945.83654	0.0511421822
1944.40683	0.0511819907
1942.97711	0.0512079112
1941.54740	0.0512266979
1940.11769	0.0512550101
1938.68798	0.0513068624
1937.25827	0.0513833128
1935.82856	0.0514725409
1934.39885	0.0515593663
1932.96914	0.0516330004
1931.53943	0.0516909920
1930.10972	0.0517348796
1928.68001	0.0517669544
1927.25029	0.0517893843
1925.82058	0.0518059768
1924.39087	0.0518226027
1922.96116	0.0518456735
1921.53145	0.0518812314
1920.10174	0.0519340932
1918.67203	0.0520067401
1917.24232	0.0520963892
1915.81261	0.0521949567
1914.38290	0.0522926152
1912.95319	0.0523827597
1911.52347	0.0524642467
1910.09376	0.0525398180
1908.66405	0.0526133291
1907.23434	0.0526878461
1905.80463	0.0527651235
1904.37492	0.0528446957
1902.94521	0.0529245734
1901.51550	0.0530016012
1900.08579	0.0530728810
1898.65608	0.0531374700
1897.22637	0.0531971268
1895.79665	0.0532562025
1894.36694	0.0533199720
1892.93723	0.0533897802
1891.50752	0.0534625575
1890.07781	0.0535326526
1888.64810	0.0535978973
1887.21839	0.0536625385
1885.78868	0.0537329577
1884.35897	0.0538105965
1882.92926	0.0538910627
1881.49955	0.0539699607
1880.06983	0.0540485829
1878.64012	0.0541325808
1877.21041	0.0542240180
1875.78070	0.0543158837
1874.35099	0.0543939210
1872.92128	0.0544448309
1871.49157	0.0544660166
1870.06186	0.0544709153
1868.63215	0.0544894636
1867.20244	0.0545537658
1865.77273	0.0546767637
1864.34301	0.0548439063
1862.91330	0.0550250411
1861.48359	0.0551925525
1860.05388	0.0553320497
1858.62417	0.0554428250
1857.19446	0.0555315688
1855.76475	0.0556063503
1854.33504	0.0556753799
1852.90533	0.0557469539
1851.47562	0.0558261015
1850.04591	0.0559097677
1848.61619	0.0559882112
1847.18648	0.0560550913
1845.75677	0.0561159141
1844.32706	0.0561864078
1842.89735	0.0562793091
1841.46764	0.0563944541
1840.03793	0.0565238409
1838.60822	0.0566599034
1837.17851	0.0567961261
1835.74880	0.0569225922
1834.31909	0.0570274852
1832.88938	0.0571049191
1831.45966	0.0571614020
1830.02995	0.0572161786
1828.60024	0.0572922304
1827.17053	0.0574041568
1825.74082	0.0575506315
1824.31111	0.0577177294
1822.88140	0.0578877665
1821.45169	0.0580493137
1820.02198	0.0582017787
1818.59227	0.0583502688
1817.16256	0.0584965274
1815.73284	0.0586334169
1814.30313	0.0587507300
1812.87342	0.0588474087
1811.44371	0.0589375906
1810.01400	0.0590432994
1808.58429	0.0591780767
1807.15458	0.0593382679
1805.72487	0.0595068000
1804.29516	0.0596647337
1802.86545	0.0598001517
1801.43574	0.0599145107
1800.00602	0.0600221790
1798.57631	0.0601385608
1797.14660	0.0602677874
1795.71689	0.0604003854
1794.28718	0.0605281442
1792.85747	0.0606581755
1791.42776	0.0608118251
1789.99805	0.0610025860
1788.56834	0.0612208508
1787.13863	0.0614427440
1785.70892	0.0616477467
1784.27920	0.0618283674
1782.84949	0.0619907938
1781.41978	0.0621512793
1779.99007	0.0623292103
1778.56036	0.0625359192
1777.13065	0.0627654865
1775.70094	0.0629952624
1774.27123	0.0631992295
1772.84152	0.0633709431
1771.41181	0.0635357127
1769.98210	0.0637303144
1768.55238	0.0639678612
1767.12267	0.0642335638
1765.69296	0.0645070374
1764.26325	0.0647786036
1762.83354	0.0650512353
1761.40383	0.0653374642
1759.97412	0.0656537265
1758.54441	0.0660109520
1757.11470	0.0664033368
1755.68499	0.0668084919
1754.25528	0.0672026575
1752.82556	0.0675823614
1751.39585	0.0679711476
1749.96614	0.0684007332
1748.53643	0.0688792467
1747.10672	0.0693846494
1745.67701	0.0698911250
1744.24730	0.0703902766
1742.81759	0.0708829388
1741.38788	0.0713634342
1739.95817	0.0718190745
1738.52846	0.0722455159
1737.09874	0.0726590008
1735.66903	0.0730964392
1734.23932	0.0736003965
1732.80961	0.0741958246
1731.37990	0.0748730227
1729.95019	0.0756003112
1728.52048	0.0763505548
1727.09077	0.0771117061
1725.66106	0.0778807923
1724.23135	0.0786552429
1722.80164	0.0794314519
1721.37192	0.0802156180
1719.94221	0.0810441300
1718.51250	0.0819867626
1717.08279	0.0830957219
1715.65308	0.0843249336
1714.22337	0.0855487511
1712.79366	0.0866811052
1711.36395	0.0877241939
1709.93424	0.0887284800
1708.50453	0.0897482336
1707.07482	0.0908272117
1705.64510	0.0920060351
1704.21539	0.0933404490
1702.78568	0.0949106514
1701.35597	0.0968056321
1699.92626	0.0990645215
1698.49655	0.1015934795
1697.06684	0.1041674837
1695.63713	0.1065718457
1694.20742	0.1087223217
1692.77771	0.1106447056
1691.34800	0.1124049574
1689.91828	0.1140814424
1688.48857	0.1157782748
1687.05886	0.1176411137
1685.62915	0.1198076457
1684.19944	0.1222550794
1682.76973	0.1247216612
1681.34002	0.1269345731
1679.91031	0.1288512200
1678.48060	0.1306070834
1677.05089	0.1323594600
1675.62118	0.1342028230
1674.19147	0.1361643523
1672.76175	0.1382442117
1671.33204	0.1404426098
1669.90233	0.1427337527
1668.47262	0.1450404078
1667.04291	0.1472814530
1665.61320	0.1494362503
1664.18349	0.1515302062
1662.75378	0.1535517424
1661.32407	0.1554009616
1659.89436	0.1569381207
1658.46465	0.1580591202
1657.03493	0.1586913317
1655.60522	0.1587347537
1654.17551	0.1580817699
1652.74580	0.1567909718
1651.31609	0.1551703066
1649.88638	0.1535014361
1648.45667	0.1518220901
1647.02696	0.1500828415
1645.59725	0.1483504474
1644.16754	0.1467832029
1642.73783	0.1454536766
1641.30811	0.1442635953
1639.87840	0.1429963261
1638.44869	0.1414175630
1637.01898	0.1394115835
1635.58927	0.1371253282
1634.15956	0.1348881572
1632.72985	0.1328903586
1631.30014	0.1310466379
1629.87043	0.1291358769
1628.44072	0.1269462854
1627.01101	0.1243535206
1625.58129	0.1213782057
1624.15158	0.1181949899
1622.72187	0.1150247753
1621.29216	0.1119789630
1619.86245	0.1090126857
1618.43274	0.1060275659
1617.00303	0.1030311584
1615.57332	0.1001974121
1614.14361	0.0977318883
1612.71390	0.0956909060
1611.28419	0.0939696282
1609.85447	0.0924245939
1608.42476	0.0909808427
1606.99505	0.0896501169
1605.56534	0.0884778872
1604.13563	0.0874846652
1602.70592	0.0866547823
1601.27621	0.0859635919
1599.84650	0.0853936598
1598.41679	0.0849291533
1596.98708	0.0845501497
1595.55737	0.0842445046
1594.12765	0.0840199515
1592.69794	0.0838949829
1591.26823	0.0838777125
1589.83852	0.0839566588
1588.40881	0.0841148570
1586.97910	0.0843436047
1585.54939	0.0846398845
1584.11968	0.0849934965
1582.68997	0.0853874236
1581.26026	0.0858124793
1579.83055	0.0862803608
1578.40083	0.0868173093
1576.97112	0.0874390677
1575.54141	0.0881280228
1574.11170	0.0888480768
1572.68199	0.0895854980
1571.25228	0.0903621912
1569.82257	0.0912060589
1568.39286	0.0921123028
1566.96315	0.0930353552
1565.53344	0.0939287543
1564.10373	0.0947904959
1562.67401	0.0956821963
1561.24430	0.0967243463
1559.81459	0.0980405882
1558.38488	0.0996012464
1556.95517	0.1011443287
1555.52546	0.1024267003
1554.09575	0.1034165695
1552.66604	0.1041785702
1551.23633	0.1047493294
1549.80662	0.1051215604
1548.37691	0.1052768975
1546.94719	0.1052051559
1545.51748	0.1048861146
1544.08777	0.1042516530
1542.65806	0.1032049581
1541.22835	0.1017739996
1539.79864	0.1002399325
1538.36893	0.0989115834
1536.93922	0.0978336930
1535.50951	0.0968612805
1534.07980	0.0958585963
1532.65009	0.0947859883
1531.22037	0.0936791226
1529.79066	0.0925836265
1528.36095	0.0915065110
1526.93124	0.0904199481
1525.50153	0.0892958120
1524.07182	0.0881333128
1522.64211	0.0869660825
1521.21240	0.0858448148
1519.78269	0.0848062858
1518.35298	0.0838460028
1516.92327	0.0829221979
1515.49356	0.0819852576
1514.06384	0.0809995532
1512.63413	0.0799318328
1511.20442	0.0787152797
1509.77471	0.0772399008
1508.34500	0.0754503980
1506.91529	0.0735495836
1505.48558	0.0719574839
1504.05587	0.0708889738
1502.62616	0.0702088922
1501.19645	0.0696764216
1499.76674	0.0691235438
1498.33702	0.0684973449
1496.90731	0.0678441748
1495.47760	0.0672423318
1494.04789	0.0667239949
1492.61818	0.0662641302
1491.18847	0.0658309013
1489.75876	0.0654335245
1488.32905	0.0651238039
1486.89934	0.0649488643
1485.46963	0.0649082884
1484.03992	0.0649638399
1482.61020	0.0650767982
1481.18049	0.0652281418
1479.75078	0.0654186234
1478.32107	0.0656602010
1476.89136	0.0659718364
1475.46165	0.0663750768
1474.03194	0.0668757334
1472.60223	0.0674318299
1471.17252	0.0679580122
1469.74281	0.0683796704
1468.31310	0.0686725900
1466.88338	0.0688558891
1465.45367	0.0689702034
1464.02396	0.0690572560
1462.59425	0.0691431463
1461.16454	0.0692344308
1459.73483	0.0693292543
1458.30512	0.0694285631
1456.87541	0.0695311800
1455.44570	0.0696201697
1454.01599	0.0696663037
1452.58628	0.0696462169
1451.15656	0.0695486814
1449.72685	0.0693723783
1448.29714	0.0691270605
1446.86743	0.0688369945
1445.43772	0.0685335919
1444.00801	0.0682403445
1442.57830	0.0679619759
1441.14859	0.0676854774
1439.71888	0.0673896000
1438.28917	0.0670601130
1436.85946	0.0667097196
1435.42974	0.0663840026
1434.00003	0.0661365464
1432.57032	0.0659974515
1431.14061	0.0659661442
1429.71090	0.0660248101
1428.28119	0.0661517978
1426.85148	0.0663267598
1425.42177	0.0665341765
1423.99206	0.0667646825
1422.56235	0.0670176074
1421.13264	0.0673021749
1419.70292	0.0676323920
1418.27321	0.0680122897
1416.84350	0.0684248805
1415.41379	0.0688421801
1413.98408	0.0692439973
1412.55437	0.0696247891
1411.12466	0.0699860603
1409.69495	0.0703268722
1408.26524	0.0706393868
1406.83553	0.0709103942
1405.40582	0.0711258948
1403.97610	0.0712737441
1402.54639	0.0713454932
1401.11668	0.0713382959
1399.68697	0.0712564513
1398.25726	0.0711117461
1396.82755	0.0709231049
1395.39784	0.0707128569
1393.96813	0.0704961941
1392.53842	0.0702714846
1391.10871	0.0700189397
1389.67900	0.0697110370
1388.24928	0.0693297759
1386.81957	0.0688834041
1385.38986	0.0684073716
1383.96015	0.0679419041
1382.53044	0.0675084218
1381.10073	0.0671054572
1379.67102	0.0667246878
1378.24131	0.0663680509
1376.81160	0.0660532042
1375.38189	0.0658047572
1373.95218	0.0656364709
1372.52246	0.0655380264
1371.09275	0.0654785782
1369.66304	0.0654238909
1368.23333	0.0653523952
1366.80362	0.0652612001
1365.37391	0.0651613921
1363.94420	0.0650707558
1362.51449	0.0650062561
1361.08478	0.0649806708
1359.65507	0.0650012344
1358.22536	0.0650693402
1356.79565	0.0651758313
1355.36593	0.0652996153
1353.93622	0.0654117316
1352.50651	0.0654886290
1351.07680	0.0655255020
1349.64709	0.0655372441
1348.21738	0.0655455515
1346.78767	0.0655633733
1345.35796	0.0655888394
1343.92825	0.0656131059
1342.49854	0.0656344220
1341.06883	0.0656641424
1339.63911	0.0657202750
1338.20940	0.0658110827
1336.77969	0.0659264028
1335.34998	0.0660470277
1333.92027	0.0661630407
1332.49056	0.0662808940
1331.06085	0.0664163083
1329.63114	0.0665792525
1328.20143	0.0667651668
1326.77172	0.0669599846
1325.34201	0.0671521053
1323.91229	0.0673402324
1322.48258	0.0675305575
1321.05287	0.0677262321
1319.62316	0.0679219291
1318.19345	0.0681063011
1316.76374	0.0682716072
1315.33403	0.0684200078
1313.90432	0.0685617253
1312.47461	0.0687071010
1311.04490	0.0688595921
1309.61519	0.0690153837
1308.18547	0.0691683739
1306.75576	0.0693174750
1305.32605	0.0694675371
1303.89634	0.0696250051
1302.46663	0.0697910711
1301.03692	0.0699594244
1299.60721	0.0701179504
1298.17750	0.0702540502
1296.74779	0.0703587458
1295.31808	0.0704302490
1293.88837	0.0704754591
1292.45865	0.0705077350
1291.02894	0.0705415308
1289.59923	0.0705852658
1288.16952	0.0706376210
1286.73981	0.0706905872
1285.31010	0.0707371086
1283.88039	0.0707776845
1282.45068	0.0708190352
1281.02097	0.0708695576
1279.59126	0.0709345341
1278.16155	0.0710165277
1276.73183	0.0711180866
1275.30212	0.0712439120
1273.87241	0.0713994056
1272.44270	0.0715857446
1271.01299	0.0717974827
1269.58328	0.0720263496
1268.15357	0.0722698495
1266.72386	0.0725374147
1265.29415	0.0728506967
1263.86444	0.0732323676
1262.43473	0.0736927465
1261.00501	0.0742211044
1259.57530	0.0747892484
1258.14559	0.0753630325
1256.71588	0.0759118944
1255.28617	0.0764118135
1253.85646	0.0768437460
1252.42675	0.0771925524
1250.99704	0.0774495900
1249.56733	0.0776146501
1248.13762	0.0776933655
1246.70791	0.0776921883
1245.27819	0.0776145607
1243.84848	0.0774626136
1242.41877	0.0772423074
1240.98906	0.0769654065
1239.55935	0.0766468942
1238.12964	0.0762996301
1236.69993	0.0759305507
1235.27022	0.0755420923
1233.84051	0.0751375109
1232.41080	0.0747241229
1230.98109	0.0743122250
1229.55137	0.0739087984
1228.12166	0.0735134035
1226.69195	0.0731193200
1225.26224	0.0727199018
1223.83253	0.0723147392
1222.40282	0.0719100684
1220.97311	0.0715139583
1219.54340	0.0711295828
1218.11369	0.0707544386
1216.68398	0.0703848600
1215.25427	0.0700229257
1213.82455	0.0696766376
1212.39484	0.0693575889
1210.96513	0.0690740719
1209.53542	0.0688300431
1208.10571	0.0686259046
1206.67600	0.0684624612
1205.24629	0.0683412552
1203.81658	0.0682639703
1202.38687	0.0682314113
1200.95716	0.0682444051
1199.52745	0.0683055371
1198.09774	0.0684185848
1196.66802	0.0685879737
1195.23831	0.0688172430
1193.80860	0.0691076070
1192.37889	0.0694566593
1190.94918	0.0698557049
1189.51947	0.0702909604
1188.08976	0.0707475841
1186.66005	0.0712160394
1185.23034	0.0716971457
1183.80063	0.0722005516
1182.37092	0.0727399513
1180.94120	0.0733262599
1179.51149	0.0739631802
1178.08178	0.0746452063
1176.65207	0.0753596723
1175.22236	0.0760895461
1173.79265	0.0768178925
1172.36294	0.0775327012
1170.93323	0.0782303959
1169.50352	0.0789165571
1168.07381	0.0796046034
1166.64410	0.0803100318
1165.21438	0.0810431018
1163.78467	0.0818037763
1162.35496	0.0825811625
1160.92525	0.0833595321
1159.49554	0.0841283649
1158.06583	0.0848884284
1156.63612	0.0856497586
1155.20641	0.0864242762
1153.77670	0.0872180462
1152.34699	0.0880282745
1150.91728	0.0888466835
1149.48756	0.0896644071
1148.05785	0.0904765651
1146.62814	0.0912852958
1145.19843	0.0921019986
1143.76872	0.0929462388
1142.33901	0.0938427001
1140.90930	0.0948153883
1139.47959	0.0958817750
1138.04988	0.0970498472
1136.62017	0.0983163044
1135.19046	0.0996665657
1133.76074	0.1010748744
1132.33103	0.1025075242
1130.90132	0.1039317027
1129.47161	0.1053258851
1128.04190	0.1066879258
1126.61219	0.1080328375
1125.18248	0.1093822271
1123.75277	0.1107490808
1122.32306	0.1121297404
1120.89335	0.1135060266
1119.46364	0.1148572415
1118.03392	0.1161720529
1116.60421	0.1174530983
1115.17450	0.1187107489
1113.74479	0.1199535877
1112.31508	0.1211805940
1110.88537	0.1223788187
1109.45566	0.1235262156
1108.02595	0.1245970055
1106.59624	0.1255693287
1105.16653	0.1264328808
1103.73682	0.1271904260
1102.30710	0.1278530061
1100.87739	0.1284308136
1099.44768	0.1289281249
1098.01797	0.1293483078
1096.58826	0.1297008097
1095.15855	0.1300030351
1093.72884	0.1302718669
1092.29913	0.1305103004
1090.86942	0.1307007372
1089.43971	0.1308099329
1088.01000	0.1308018267
1086.58028	0.1306499541
1085.15057	0.1303441226
1083.72086	0.1298889071
1082.29115	0.1292972565
1080.86144	0.1285847574
1079.43173	0.1277649254
1078.00202	0.1268489659
1076.57231	0.1258473247
1075.14260	0.1247727498
1073.71289	0.1236388981
1072.28318	0.1224575415
1070.85346	0.1212327108
1069.42375	0.1199583635
1067.99404	0.1186221913
1066.56433	0.1172133535
1065.13462	0.1157286987
1063.70491	0.1141727045
1062.27520	0.1125513539
1060.84549	0.1108659506
1059.41578	0.1091119796
1057.98607	0.1072841957
1056.55636	0.1053845808
1055.12664	0.1034261286
1053.69693	0.1014316380
1052.26722	0.0994273201
1050.83751	0.0974368826
1049.40780	0.0954787731
1047.97809	0.0935664102
1046.54838	0.0917108655
1045.11867	0.0899219885
1043.68896	0.0882081240
1042.25925	0.0865752175
1040.82954	0.0850274414
1039.39983	0.0835675523
1037.97011	0.0821963772
1036.54040	0.0809110627
1035.11069	0.0797050148
1033.68098	0.0785702094
1032.25127	0.0775004551
1030.82156	0.0764914230
1029.39185	0.0755387023
1027.96214	0.0746349692
1026.53243	0.0737732053
1025.10272	0.0729534179
1023.67301	0.0721901283
1022.24329	0.0715110600
1020.81358	0.0709487051
1019.38387	0.0705269203
1017.95416	0.0702520087
1016.52445	0.0701146647
1015.09474	0.0701000616
1013.66503	0.0701992437
1012.23532	0.0704142079
1010.80561	0.0707532838
1009.37590	0.0712201223
1007.94619	0.0718059763
1006.51647	0.0724895149
1005.08676	0.0732461289
1003.65705	0.0740593821
1002.22734	0.0749244764
1000.79763	0.0758398175
999.36792	0.0767922476
997.93821	0.0777476653
996.50850	0.0786555484
995.07879	0.0794640556
993.64908	0.0801347271
992.21937	0.0806468651
990.78965	0.0809911266
989.35994	0.0811610371
987.93023	0.0811499581
986.50052	0.0809549764
985.07081	0.0805813223
983.64110	0.0800459236
982.21139	0.0793732703
980.78168	0.0785903409
979.35197	0.0777185038
977.92226	0.0767698213
976.49255	0.0757491738
975.06283	0.0746630058
973.63312	0.0735273883
972.20341	0.0723678768
970.77370	0.0712123141
969.34399	0.0700818077
967.91428	0.0689903200
966.48457	0.0679506212
965.05486	0.0669785291
963.62515	0.0660906360
962.19544	0.0652956143
960.76573	0.0645905286
959.33601	0.0639643520
957.90630	0.0634076074
956.47659	0.0629165918
955.04688	0.0624910183
953.61717	0.0621283986
952.18746	0.0618207268
950.75775	0.0615588501
949.32804	0.0613363907
947.89833	0.0611536466
946.46862	0.0610130429
945.03891	0.0609153695
943.60919	0.0608549453
942.17948	0.0608210564
940.74977	0.0608006902
939.32006	0.0607812144
937.89035	0.0607515611
936.46064	0.0607030354
935.03093	0.0606302544
933.60122	0.0605329648
932.17151	0.0604145490
930.74180	0.0602790006
929.31209	0.0601282455
927.88237	0.0599638112
926.45266	0.0597888604
925.02295	0.0596100949
923.59324	0.0594341904
922.16353	0.0592652112
920.73382	0.0591035374
919.30411	0.0589482933
917.87440	0.0587979406
916.44469	0.0586465113
915.01498	0.0584824011
913.58527	0.0582922101
912.15555	0.0580711514
910.72584	0.0578297973
909.29613	0.0575926863
907.86642	0.0573885590
906.43671	0.0572402179
905.00700	0.0571616963
903.57729	0.0571593940
902.14758	0.0572324209
900.71787	0.0573707744
899.28816	0.0575565100
897.85845	0.0577696525
896.42873	0.0579978935
894.99902	0.0582422987
893.56931	0.0585144199
892.13960	0.0588274039
890.70989	0.0591863245
889.28018	0.0595837273
887.85047	0.0600014627
886.42076	0.0604165122
884.99105	0.0608103350
883.56134	0.0611742102
882.13163	0.0615093671
880.70192	0.0618206970
879.27220	0.0621100925
877.84249	0.0623738579
876.41278	0.0626079738
874.98307	0.0628122687
873.55336	0.0629897863
872.12365	0.0631423146
870.69394	0.0632675588
869.26423	0.0633625239
867.83452	0.0634274110
866.40481	0.0634643734
864.97510	0.0634721965
863.54538	0.0634445101
862.11567	0.0633744448
860.68596	0.0632618666
859.25625	0.0631125271
857.82654	0.0629274547
856.39683	0.0626961216
854.96712	0.0624007545
853.53741	0.0620314330
852.10770	0.0615981035
850.67799	0.0611285865
849.24828	0.0606543347
847.81856	0.0601966269
846.38885	0.0597600192
844.95914	0.0593377650
843.52943	0.0589201301
842.09972	0.0585038736
840.67001	0.0580977537
839.24030	0.0577203929
837.81059	0.0573899746
836.38088	0.0571093187
834.95117	0.0568584688
833.52146	0.0566017479
832.09174	0.0563067459
830.66203	0.0559597053
829.23232	0.0555694588
827.80261	0.0551576056
826.37290	0.0547490790
824.94319	0.0543659031
823.51348	0.0540248640
822.08377	0.0537342466
820.65406	0.0534903705
819.22435	0.0532816648
817.79464	0.0530981533
816.36492	0.0529393405
814.93521	0.0528123342
813.50550	0.0527194105
812.07579	0.0526495948
810.64608	0.0525835268
809.21637	0.0525076836
807.78666	0.0524279699
806.35695	0.0523674563
804.92724	0.0523496717
803.49753	0.0523819402
802.06782	0.0524471588
800.63810	0.0525123589
799.20839	0.0525449030
797.77868	0.0525259413
796.34897	0.0524568856
794.91926	0.0523574986
793.48955	0.0522574894
792.05984	0.0521854982
790.63013	0.0521588214
789.20042	0.0521784350
787.77071	0.0522304848
786.34100	0.0522913598
784.91128	0.0523353331
783.48157	0.0523395687
782.05186	0.0522899292
780.62215	0.0521847978
779.19244	0.0520396270
777.76273	0.0518858396
776.33302	0.0517624058
774.90331	0.0517003834
773.47360	0.0517089553
772.04389	0.0517703667
770.61418	0.0518492311
769.18446	0.0519111045
767.75475	0.0519389920
766.32504	0.0519403368
764.89533	0.0519384369
763.46562	0.0519558564
762.03591	0.0520011112
760.60620	0.0520636439
759.17649	0.0521216057
757.74678	0.0521530993
756.31707	0.0521432050
754.88736	0.0520862602
753.45764	0.0519861132
752.02793	0.0518579260
750.59822	0.0517282598
749.16851	0.0516268499
747.73880	0.0515701808
746.30909	0.0515492521
744.87938	0.0515348800
743.44967	0.0514994971
742.01996	0.0514396951
740.59025	0.0513796695
739.16054	0.0513529517
737.73082	0.0513776019
736.30111	0.0514455549
734.87140	0.0515331626
733.44169	0.0516195334
732.01198	0.0516988374
730.58227	0.0517791770
729.15256	0.0518738516
727.72285	0.0519914217
726.29314	0.0521310344
724.86343	0.0522831827
723.43372	0.0524345115
722.00401	0.0525732152
720.57429	0.0526935756
719.14458	0.0527978055
717.71487	0.0528954528
716.28516	0.0529998466
714.85545	0.0531222001
713.42574	0.0532651283
711.99603	0.0534208976
710.56632	0.0535758473
709.13661	0.0537195690
707.70690	0.0538471341
706.27719	0.0539562441
704.84747	0.0540402569
703.41776	0.0540888049
701.98805	0.0540951975
700.55834	0.0540621839
699.12863	0.0540000349
697.69892	0.0539171174
696.26921	0.0538149327
694.83950	0.0536902174
693.40979	0.0535412021
691.98008	0.0533711351
690.55037	0.0531875566
689.12065	0.0530020110
687.69094	0.0528300218
686.26123	0.0526882559
684.83152	0.0525873564
683.40181	0.0525273159
681.97210	0.0525002629
680.54239	0.0524989218
679.11268	0.0525208898
677.68297	0.0525624901
676.25326	0.0526069030
674.82355	0.0526229143
673.39383	0.0525752604
671.96412	0.0524407029
670.53441	0.0522274785
669.10470	0.0519924164
667.67499	0.0518214926
666.24528	0.0517591685
664.81557	0.0517682992
663.38586	0.0517797284
661.95615	0.0517465137
660.52644	0.0516567938
659.09673	0.0515265465
657.66701	0.0513865165
656.23730	0.0512666032
654.80759	0.0511831269
653.37788	0.0511323102
651.94817	0.0510918349
650.51846	0.0510336012
649.08875	0.0509430692
647.65904	0.0508320965
646.22933	0.0507287420
644.79962	0.0506527275
643.36991	0.0506001115
641.94019	0.0505527630
640.51048	0.0504997820
639.08077	0.0504441001
637.65106	0.0503858104
636.22135	0.0503025316
634.79164	0.0501508415
633.36193	0.0498897769
631.93222	0.0495018959
630.50251	0.0489929020
629.07280	0.0483764447
627.64309	0.0476645045
626.21337	0.0468782857
624.78366	0.0460675545
623.35395	0.0453143008
621.92424	0.0447023213
620.49453	0.0442699715
619.06482	0.0439867191
617.63511	0.0437780060
616.20540	0.0435763448
614.77569	0.0433607884
613.34598	0.0431564897
611.91627	0.0430055000
610.48655	0.0429348573
609.05684	0.0429457426
607.62713	0.0430231057
606.19742	0.0431466848
604.76771	0.0432923734
603.33800	0.0434313305
601.90829	0.0435406007
600.47858	0.0436176993
599.04887	0.0436844490
