3997.47168	0.0086726286
3996.04197	0.0086711505
3994.61226	0.0086834561
3993.18255	0.0087006222
3991.75284	0.0087161781
3990.32312	0.0087311268
3988.89341	0.0087529700
3987.46370	0.0087881796
3986.03399	0.0088353334
3984.60428	0.0088842623
3983.17457	0.0089204870
3981.74486	0.0089310035
3980.31515	0.0089121899
3978.88544	0.0088715013
3977.45573	0.0088234190
3976.02602	0.0087818401
3974.59630	0.0087521514
3973.16659	0.0087317610
3971.73688	0.0087145409
3970.30717	0.0086988527
3968.87746	0.0086907977
3967.44775	0.0087010982
3966.01804	0.0087363301
3964.58833	0.0087918248
3963.15862	0.0088508669
3961.72891	0.0088905767
3960.29920	0.0088959401
3958.86948	0.0088669043
3957.43977	0.0088190604
3956.01006	0.0087722251
3954.58035	0.0087405294
3953.15064	0.0087275347
3951.72093	0.0087281950
3950.29122	0.0087348241
3948.86151	0.0087413481
3947.43180	0.0087455744
3946.00209	0.0087499060
3944.57238	0.0087633766
3943.14266	0.0087973988
3941.71295	0.0088588987
3940.28324	0.0089413086
3938.85353	0.0090246331
3937.42382	0.0090841036
3935.99411	0.0091050658
3934.56440	0.0090928264
3933.13469	0.0090727899
3931.70498	0.0090753539
3930.27527	0.0091140801
3928.84556	0.0091764703
3927.41585	0.0092341639
3925.98613	0.0092627490
3924.55642	0.0092536258
3923.12671	0.0092117153
3921.69700	0.0091500590
3920.26729	0.0090837339
3918.83758	0.0090308441
3917.40787	0.0090116831
3915.97816	0.0090370551
3914.54845	0.0090986416
3913.11874	0.0091703106
3911.68903	0.0092215249
3910.25931	0.0092319688
3908.82960	0.0091965646
3907.39989	0.0091218250
3905.97018	0.0090209330
3904.54047	0.0089114504
3903.11076	0.0088172900
3901.68105	0.0087643014
3900.25134	0.0087675499
3898.82163	0.0088199852
3897.39192	0.0088984771
3895.96221	0.0089762695
3894.53249	0.0090338308
3893.10278	0.0090641202
3891.67307	0.0090728700
3890.24336	0.0090750903
3888.81365	0.0090821739
3887.38394	0.0090949675
3885.95423	0.0091049336
3884.52452	0.0091048805
3883.09481	0.0090989331
3881.66510	0.0091007566
3880.23539	0.0091230944
3878.80567	0.0091687767
3877.37596	0.0092304619
3875.94625	0.0092975507
3874.51654	0.0093602063
3873.08683	0.0094086118
3871.65712	0.0094331615
3870.22741	0.0094256746
3868.79770	0.0093877679
3867.36799	0.0093324874
3865.93828	0.0092796469
3864.50857	0.0092469882
3863.07885	0.0092410920
3861.64914	0.0092530707
3860.21943	0.0092631718
3858.78972	0.0092530176
3857.36001	0.0092148613
3855.93030	0.0091616921
3854.50059	0.0091294916
3853.07088	0.0091549763
3851.64117	0.0092331590
3850.21146	0.0093201622
3848.78175	0.0093834028
3847.35203	0.0094152521
3845.92232	0.0094205160
3844.49261	0.0094049620
3843.06290	0.0093723731
3841.63319	0.0093295779
3840.20348	0.0092912568
3838.77377	0.0092770550
3837.34406	0.0093010943
3835.91435	0.0093641467
3834.48464	0.0094573675
3833.05493	0.0095688403
3831.62521	0.0096848942
3830.19550	0.0097882710
3828.76579	0.0098637603
3827.33608	0.0099054165
3825.90637	0.0099189766
3824.47666	0.0099151889
3823.04695	0.0098998286
3821.61724	0.0098698512
3820.18753	0.0098242797
3818.75782	0.0097766742
3817.32811	0.0097524766
3815.89839	0.0097693410
3814.46868	0.0098219495
3813.03897	0.0098883351
3811.60926	0.0099467328
3810.17955	0.0099856686
3808.74984	0.0100081572
3807.32013	0.0100269122
3805.89042	0.0100559462
3804.46071	0.0100990515
3803.03100	0.0101445988
3801.60129	0.0101730321
3800.17157	0.0101747019
3798.74186	0.0101591200
3797.31215	0.0101474877
3795.88244	0.0101569733
3794.45273	0.0101926951
3793.02302	0.0102494899
3791.59331	0.0103165507
3790.16360	0.0103823757
3788.73389	0.0104361726
3787.30418	0.0104714921
3785.87447	0.0104864752
3784.44475	0.0104851229
3783.01504	0.0104731899
3781.58533	0.0104568284
3780.15562	0.0104413955
3778.72591	0.0104321418
3777.29620	0.0104339449
3775.86649	0.0104489001
3774.43678	0.0104771145
3773.00707	0.0105173700
3771.57736	0.0105664628
3770.14765	0.0106171519
3768.71794	0.0106588006
3767.28822	0.0106859673
3765.85851	0.0107019395
3764.42880	0.0107150730
3762.99909	0.0107293213
3761.56938	0.0107397754
3760.13967	0.0107417656
3758.70996	0.0107389260
3757.28025	0.0107469130
3755.85054	0.0107810907
3754.42083	0.0108444113
3752.99112	0.0109220762
3751.56140	0.0109889219
3750.13169	0.0110254288
3748.70198	0.0110334475
3747.27227	0.0110330498
3745.84256	0.0110481307
3744.41285	0.0110940440
3742.98314	0.0111716734
3741.55343	0.0112684965
3740.12372	0.0113638537
3738.69401	0.0114363488
3737.26430	0.0114681097
3735.83458	0.0114582488
3734.40487	0.0114330007
3732.97516	0.0114304759
3731.54545	0.0114653716
3730.11574	0.0115227317
3728.68603	0.0115777338
3727.25632	0.0116177201
3725.82661	0.0116481902
3724.39690	0.0116870133
3722.96719	0.0117507325
3721.53748	0.0118407952
3720.10776	0.0119442875
3718.67805	0.0120429602
3717.24834	0.0121224364
3715.81863	0.0121734412
3714.38892	0.0121942060
3712.95921	0.0121953515
3711.52950	0.0122045092
3710.09979	0.0122525683
3708.67008	0.0123493131
3707.24037	0.0124790603
3705.81066	0.0126184132
3704.38094	0.0127500799
3702.95123	0.0128661608
3701.52152	0.0129657630
3700.09181	0.0130544510
3698.66210	0.0131403031
3697.23239	0.0132284928
3695.80268	0.0133192372
3694.37297	0.0134115480
3692.94326	0.0135109825
3691.51355	0.0136307925
3690.08384	0.0137824863
3688.65412	0.0139585035
3687.22441	0.0141324801
3685.79470	0.0142848575
3684.36499	0.0144169228
3682.93528	0.0145448539
3681.50557	0.0146872532
3680.07586	0.0148569690
3678.64615	0.0150567107
3677.21644	0.0152746150
3675.78673	0.0154837240
3674.35702	0.0156562999
3672.92730	0.0157861784
3671.49759	0.0158957448
3670.06788	0.0160207544
3668.63817	0.0161895137
3667.20846	0.0164087396
3665.77875	0.0166682620
3664.34904	0.0169495270
3662.91933	0.0172346625
3661.48962	0.0175100137
3660.05991	0.0177687407
3658.63020	0.0180126708
3657.20048	0.0182490461
3655.77077	0.0184836313
3654.34106	0.0187141802
3652.91135	0.0189300347
3651.48164	0.0191171877
3650.05193	0.0192662906
3648.62222	0.0193857234
3647.19251	0.0195048638
3645.76280	0.0196522046
3644.33309	0.0198387466
3642.90338	0.0200596880
3641.47366	0.0203044768
3640.04395	0.0205629990
3638.61424	0.0208291449
3637.18453	0.0210992321
3635.75482	0.0213664137
3634.32511	0.0216154754
3632.89540	0.0218218081
3631.46569	0.0219623391
3630.03598	0.0220372789
3628.60627	0.0220874734
3627.17656	0.0221728422
3625.74684	0.0223231874
3624.31713	0.0225254949
3622.88742	0.0227488447
3621.45771	0.0229679421
3620.02800	0.0231712051
3618.59829	0.0233592093
3617.16858	0.0235367753
3615.73887	0.0237035602
3614.30916	0.0238557234
3612.87945	0.0239939336
3611.44974	0.0241265502
3610.02003	0.0242633671
3608.59031	0.0244047474
3607.16060	0.0245412681
3605.73089	0.0246647913
3604.30118	0.0247800183
3602.87147	0.0249029510
3601.44176	0.0250501875
3600.01205	0.0252257027
3598.58234	0.0254143812
3597.15263	0.0255898237
3595.72292	0.0257317722
3594.29321	0.0258407444
3592.86349	0.0259333365
3591.43378	0.0260252636
3590.00407	0.0261170994
3588.57436	0.0261973515
3587.14465	0.0262605958
3585.71494	0.0263209064
3584.28523	0.0264014434
3582.85552	0.0265126191
3581.42581	0.0266451538
3579.99610	0.0267796833
3578.56639	0.0269021932
3577.13667	0.0270118713
3575.70696	0.0271168388
3574.27725	0.0272248909
3572.84754	0.0273358915
3571.41783	0.0274390075
3569.98812	0.0275163315
3568.55841	0.0275520477
3567.12870	0.0275484081
3565.69899	0.0275340378
3564.26928	0.0275469460
3562.83957	0.0276070498
3561.40985	0.0277079660
3559.98014	0.0278301314
3558.55043	0.0279547032
3557.12072	0.0280699767
3555.69101	0.0281720515
3554.26130	0.0282625202
3552.83159	0.0283484198
3551.40188	0.0284397807
3549.97217	0.0285431296
3548.54246	0.0286555197
3547.11275	0.0287664160
3545.68303	0.0288673546
3544.25332	0.0289589912
3542.82361	0.0290473811
3541.39390	0.0291342940
3539.96419	0.0292138048
3538.53448	0.0292786248
3537.10477	0.0293287486
3535.67506	0.0293719824
3534.24535	0.0294180717
3532.81564	0.0294736139
3531.38593	0.0295411348
3529.95621	0.0296207182
3528.52650	0.0297104083
3527.09679	0.0298055205
3525.66708	0.0298993532
3524.23737	0.0299874339
3522.80766	0.0300674904
3521.37795	0.0301396232
3519.94824	0.0302045830
3518.51853	0.0302652214
3517.08882	0.0303255357
3515.65911	0.0303878020
3514.22939	0.0304477718
3512.79968	0.0304968655
3511.36997	0.0305295233
3509.94026	0.0305504352
3508.51055	0.0305708759
3507.08084	0.0306003448
3505.65113	0.0306391213
3504.22142	0.0306807905
3502.79171	0.0307201296
3501.36200	0.0307571385
3499.93229	0.0307945684
3498.50257	0.0308349729
3497.07286	0.0308811646
3495.64315	0.0309366994
3494.21344	0.0310039185
3492.78373	0.0310787670
3491.35402	0.0311474260
3489.92431	0.0311930925
3488.49460	0.0312060546
3487.06489	0.0311920643
3485.63518	0.0311711486
3484.20547	0.0311657526
3482.77575	0.0311888382
3481.34604	0.0312370975
3479.91633	0.0312950686
3478.48662	0.0313448422
3477.05691	0.0313760340
3475.62720	0.0313903354
3474.19749	0.0313980170
3472.76778	0.0314110965
3471.33807	0.0314347781
3469.90836	0.0314631648
3468.47865	0.0314826444
3467.04893	0.0314813107
3465.61922	0.0314579308
3464.18951	0.0314246751
3462.75980	0.0314002149
3461.33009	0.0313974619
3459.90038	0.0314158276
3458.47067	0.0314436816
3457.04096	0.0314673670
3455.61125	0.0314797498
3454.18154	0.0314801410
3452.75183	0.0314699002
3451.32212	0.0314483866
3449.89240	0.0314134620
3448.46269	0.0313678272
3447.03298	0.0313199125
3445.60327	0.0312804356
3444.17356	0.0312545113
3442.74385	0.0312385987
3441.31414	0.0312244128
3439.88443	0.0312063042
3438.45472	0.0311843883
3437.02501	0.0311622489
3435.59530	0.0311408900
3434.16558	0.0311183929
3432.73587	0.0310921967
3431.30616	0.0310627222
3429.87645	0.0310337506
3428.44674	0.0310090333
3427.01703	0.0309896562
3425.58732	0.0309733376
3424.15761	0.0309559908
3422.72790	0.0309348926
3421.29819	0.0309093762
3419.86848	0.0308807194
3418.43876	0.0308504533
3417.00905	0.0308172721
3415.57934	0.0307770893
3414.14963	0.0307261311
3412.71992	0.0306645390
3411.29021	0.0305995941
3409.86050	0.0305421855
3408.43079	0.0305013638
3407.00108	0.0304794256
3405.57137	0.0304715671
3404.14166	0.0304667372
3402.71194	0.0304506049
3401.28223	0.0304100402
3399.85252	0.0303390268
3398.42281	0.0302436855
3396.99310	0.0301425103
3395.56339	0.0300558377
3394.13368	0.0299941748
3392.70397	0.0299502965
3391.27426	0.0299049541
3389.84455	0.0298400130
3388.41484	0.0297498256
3386.98512	0.0296445526
3385.55541	0.0295423809
3384.12570	0.0294605382
3382.69599	0.0294058006
3381.26628	0.0293725356
3379.83657	0.0293460302
3378.40686	0.0293101110
3376.97715	0.0292537585
3375.54744	0.0291750990
3374.11773	0.0290802065
3372.68802	0.0289782509
3371.25830	0.0288759023
3369.82859	0.0287773423
3368.39888	0.0286860205
3366.96917	0.0286074635
3365.53946	0.0285472777
3364.10975	0.0285055079
3362.68004	0.0284725055
3361.25033	0.0284321252
3359.82062	0.0283713546
3358.39091	0.0282882955
3356.96120	0.0281932093
3355.53148	0.0281005744
3354.10177	0.0280194469
3352.67206	0.0279497616
3351.24235	0.0278843381
3349.81264	0.0278157238
3348.38293	0.0277410224
3346.95322	0.0276632439
3345.52351	0.0275900569
3344.09380	0.0275283847
3342.66409	0.0274789371
3341.23438	0.0274329949
3339.80466	0.0273767207
3338.37495	0.0273008272
3336.94524	0.0272086300
3335.51553	0.0271143317
3334.08582	0.0270338543
3332.65611	0.0269735008
3331.22640	0.0269263741
3329.79669	0.0268779583
3328.36698	0.0268139914
3326.93727	0.0267281458
3325.50756	0.0266245659
3324.07784	0.0265171044
3322.64813	0.0264246892
3321.21842	0.0263616126
3319.78871	0.0263291840
3318.35900	0.0263127647
3316.92929	0.0262895264
3315.49958	0.0262414832
3314.06987	0.0261657052
3312.64016	0.0260750689
3311.21045	0.0259904694
3309.78074	0.0259294342
3308.35102	0.0258982759
3306.92131	0.0258901697
3305.49160	0.0258893464
3304.06189	0.0258791242
3302.63218	0.0258495621
3301.20247	0.0257999208
3299.77276	0.0257378146
3298.34305	0.0256727245
3296.91334	0.0256116800
3295.48363	0.0255572870
3294.05392	0.0255084485
3292.62421	0.0254616998
3291.19449	0.0254132282
3289.76478	0.0253606178
3288.33507	0.0253047757
3286.90536	0.0252486654
3285.47565	0.0251939073
3284.04594	0.0251403358
3282.61623	0.0250875391
3281.18652	0.0250392184
3279.75681	0.0250016246
3278.32710	0.0249791946
3276.89739	0.0249692705
3275.46767	0.0249635670
3274.03796	0.0249532852
3272.60825	0.0249340944
3271.17854	0.0249050893
3269.74883	0.0248650406
3268.31912	0.0248116180
3266.88941	0.0247441176
3265.45970	0.0246673673
3264.02999	0.0245914795
3262.60028	0.0245263949
3261.17057	0.0244763568
3259.74085	0.0244371407
3258.31114	0.0243989136
3256.88143	0.0243533533
3255.45172	0.0242993645
3254.02201	0.0242468622
3252.59230	0.0242101569
3251.16259	0.0241975952
3249.73288	0.0242019463
3248.30317	0.0242017005
3246.87346	0.0241737291
3245.44375	0.0241086539
3244.01403	0.0240175966
3242.58432	0.0239254106
3241.15461	0.0238548219
3239.72490	0.0238131732
3238.29519	0.0237899311
3236.86548	0.0237651579
3235.43577	0.0237233546
3234.00606	0.0236614626
3232.57635	0.0235884823
3231.14664	0.0235180296
3229.71693	0.0234586541
3228.28721	0.0234105401
3226.85750	0.0233678147
3225.42779	0.0233244114
3223.99808	0.0232768599
3222.56837	0.0232226495
3221.13866	0.0231601465
3219.70895	0.0230894350
3218.27924	0.0230154060
3216.84953	0.0229459181
3215.41982	0.0228875484
3213.99011	0.0228403993
3212.56039	0.0227973480
3211.13068	0.0227506720
3209.70097	0.0226969924
3208.27126	0.0226400737
3206.84155	0.0225878246
3205.41184	0.0225474965
3203.98213	0.0225209147
3202.55242	0.0225033015
3201.12271	0.0224867277
3199.69300	0.0224637464
3198.26329	0.0224314984
3196.83357	0.0223914851
3195.40386	0.0223468971
3193.97415	0.0222982541
3192.54444	0.0222431310
3191.11473	0.0221776087
3189.68502	0.0221006013
3188.25531	0.0220163651
3186.82560	0.0219334234
3185.39589	0.0218626391
3183.96618	0.0218107030
3182.53647	0.0217767339
3181.10675	0.0217509884
3179.67704	0.0217200443
3178.24733	0.0216753893
3176.81762	0.0216194484
3175.38791	0.0215647649
3173.95820	0.0215247236
3172.52849	0.0215054657
3171.09878	0.0215004329
3169.66907	0.0214934424
3168.23936	0.0214675497
3166.80965	0.0214142725
3165.37993	0.0213384349
3163.95022	0.0212555137
3162.52051	0.0211837254
3161.09080	0.0211335812
3159.66109	0.0211024918
3158.23138	0.0210793670
3156.80167	0.0210531726
3155.37196	0.0210204050
3153.94225	0.0209852215
3152.51254	0.0209529754
3151.08283	0.0209245346
3149.65311	0.0208950900
3148.22340	0.0208592378
3146.79369	0.0208153501
3145.36398	0.0207659006
3143.93427	0.0207170527
3142.50456	0.0206740759
3141.07485	0.0206416883
3139.64514	0.0206222534
3138.21543	0.0206140820
3136.78572	0.0206109341
3135.35601	0.0206043385
3133.92629	0.0205890015
3132.49658	0.0205658488
3131.06687	0.0205409881
3129.63716	0.0205200911
3128.20745	0.0205043256
3126.77774	0.0204902682
3125.34803	0.0204730630
3123.91832	0.0204484258
3122.48861	0.0204148348
3121.05890	0.0203724019
3119.62919	0.0203235187
3118.19948	0.0202721450
3116.76976	0.0202229470
3115.34005	0.0201780647
3113.91034	0.0201360900
3112.48063	0.0200932790
3111.05092	0.0200470556
3109.62121	0.0199983977
3108.19150	0.0199517515
3106.76179	0.0199119654
3105.33208	0.0198807754
3103.90237	0.0198551137
3102.47266	0.0198289920
3101.04294	0.0197971016
3099.61323	0.0197597966
3098.18352	0.0197237395
3096.75381	0.0196974650
3095.32410	0.0196852479
3093.89439	0.0196829997
3092.46468	0.0196817815
3091.03497	0.0196749289
3089.60526	0.0196633358
3088.17555	0.0196546689
3086.74584	0.0196558069
3085.31612	0.0196668040
3083.88641	0.0196795873
3082.45670	0.0196829736
3081.02699	0.0196685642
3079.59728	0.0196350608
3078.16757	0.0195870176
3076.73786	0.0195327532
3075.30815	0.0194808226
3073.87844	0.0194370188
3072.44873	0.0194023158
3071.01902	0.0193725415
3069.58930	0.0193407387
3068.15959	0.0193012543
3066.72988	0.0192531385
3065.30017	0.0191997811
3063.87046	0.0191468634
3062.44075	0.0191002805
3061.01104	0.0190650634
3059.58133	0.0190447774
3058.15162	0.0190391261
3056.72191	0.0190425608
3055.29220	0.0190456435
3053.86248	0.0190392602
3052.43277	0.0190203823
3051.00306	0.0189925004
3049.57335	0.0189628899
3048.14364	0.0189373363
3046.71393	0.0189167317
3045.28422	0.0188983735
3043.85451	0.0188784469
3042.42480	0.0188559815
3040.99509	0.0188334621
3039.56538	0.0188143235
3038.13566	0.0187988877
3036.70595	0.0187806692
3035.27624	0.0187496673
3033.84653	0.0186985321
3032.41682	0.0186304096
3030.98711	0.0185584314
3029.55740	0.0184984058
3028.12769	0.0184598081
3026.69798	0.0184413325
3025.26827	0.0184354186
3023.83856	0.0184333920
3022.40884	0.0184282064
3020.97913	0.0184142701
3019.54942	0.0183870494
3018.11971	0.0183461644
3016.69000	0.0182974264
3015.26029	0.0182497483
3013.83058	0.0182096045
3012.40087	0.0181759447
3010.97116	0.0181428529
3009.54145	0.0181077402
3008.11174	0.0180750862
3006.68202	0.0180541445
3005.25231	0.0180492345
3003.82260	0.0180538204
3002.39289	0.0180535782
3000.96318	0.0180367939
2999.53347	0.0180025809
2998.10376	0.0179614089
2996.67405	0.0179267414
2995.24434	0.0179076958
2993.81463	0.0179057010
2992.38492	0.0179167055
2990.95520	0.0179336742
2989.52549	0.0179480277
2988.09578	0.0179494563
2986.66607	0.0179288462
2985.23636	0.0178833921
2983.80665	0.0178190358
2982.37694	0.0177482720
2980.94723	0.0176827498
2979.51752	0.0176293701
2978.08781	0.0175880436
2976.65810	0.0175552666
2975.22838	0.0175269134
2973.79867	0.0174997468
2972.36896	0.0174719077
2970.93925	0.0174422115
2969.50954	0.0174104422
2968.07983	0.0173769500
2966.65012	0.0173441898
2965.22041	0.0173162799
2963.79070	0.0172980428
2962.36099	0.0172907431
2960.93128	0.0172905549
2959.50157	0.0172893144
2958.07185	0.0172806680
2956.64214	0.0172642097
2955.21243	0.0172448177
2953.78272	0.0172269065
2952.35301	0.0172105581
2950.92330	0.0171921905
2949.49359	0.0171692185
2948.06388	0.0171423964
2946.63417	0.0171150398
2945.20446	0.0170892980
2943.77475	0.0170645826
2942.34503	0.0170383323
2940.91532	0.0170071311
2939.48561	0.0169677231
2938.05590	0.0169183053
2936.62619	0.0168602541
2935.19648	0.0167994406
2933.76677	0.0167459268
2932.33706	0.0167100653
2930.90735	0.0166974477
2929.47764	0.0167058147
2928.04793	0.0167247541
2926.61821	0.0167396851
2925.18850	0.0167382862
2923.75879	0.0167182963
2922.32908	0.0166897550
2920.89937	0.0166698489
2919.46966	0.0166701451
2918.03995	0.0166878458
2916.61024	0.0167053845
2915.18053	0.0167026669
2913.75082	0.0166695267
2912.32111	0.0166118052
2910.89139	0.0165453795
2909.46168	0.0164861158
2908.03197	0.0164415911
2906.60226	0.0164107829
2905.17255	0.0163877979
2903.74284	0.0163674504
2902.31313	0.0163472909
2900.88342	0.0163281523
2899.45371	0.0163127799
2898.02400	0.0163037479
2896.59429	0.0163005237
2895.16457	0.0162979160
2893.73486	0.0162883215
2892.30515	0.0162665527
2890.87544	0.0162353273
2889.44573	0.0162045602
2888.01602	0.0161861274
2886.58631	0.0161846504
2885.15660	0.0161943771
2883.72689	0.0162028130
2882.29718	0.0161985420
2880.86747	0.0161785781
2879.43775	0.0161494259
2878.00804	0.0161226951
2876.57833	0.0161071122
2875.14862	0.0161041319
2873.71891	0.0161066018
2872.28920	0.0161041841
2870.85949	0.0160895977
2869.42978	0.0160628166
2868.00007	0.0160302892
2866.57036	0.0160006639
2865.14065	0.0159793403
2863.71093	0.0159651861
2862.28122	0.0159524027
2860.85151	0.0159346256
2859.42180	0.0159104858
2857.99209	0.0158854071
2856.56238	0.0158681963
2855.13267	0.0158643834
2853.70296	0.0158695914
2852.27325	0.0158699416
2850.84354	0.0158492140
2849.41383	0.0157994665
2847.98411	0.0157272071
2846.55440	0.0156502612
2845.12469	0.0155886775
2843.69498	0.0155551387
2842.26527	0.0155511145
2840.83556	0.0155681251
2839.40585	0.0155917630
2837.97614	0.0156054208
2836.54643	0.0155971302
2835.11672	0.0155652007
2833.68701	0.0155208781
2832.25729	0.0154827852
2830.82758	0.0154646514
2829.39787	0.0154659925
2827.96816	0.0154726719
2826.53845	0.0154691581
2825.10874	0.0154507831
2823.67903	0.0154256504
2822.24932	0.0154060703
2820.81961	0.0153963082
2819.38990	0.0153903812
2817.96019	0.0153786875
2816.53047	0.0153570455
2815.10076	0.0153298527
2813.67105	0.0153053440
2812.24134	0.0152887460
2810.81163	0.0152796563
2809.38192	0.0152741596
2807.95221	0.0152695477
2806.52250	0.0152654722
2805.09279	0.0152625497
2803.66308	0.0152596273
2802.23337	0.0152543988
2800.80366	0.0152453370
2799.37394	0.0152344787
2797.94423	0.0152269984
2796.51452	0.0152267572
2795.08481	0.0152315563
2793.65510	0.0152316904
2792.22539	0.0152161410
2790.79568	0.0151788509
2789.36597	0.0151232313
2787.93626	0.0150589617
2786.50655	0.0149966842
2785.07684	0.0149434451
2783.64712	0.0149037680
2782.21741	0.0148812914
2780.78770	0.0148782646
2779.35799	0.0148909623
2777.92828	0.0149080809
2776.49857	0.0149142426
2775.06886	0.0148979817
2773.63915	0.0148591921
2772.20944	0.0148082459
2770.77973	0.0147593953
2769.35002	0.0147220641
2767.92030	0.0146969464
2766.49059	0.0146780964
2765.06088	0.0146597279
2763.63117	0.0146409599
2762.20146	0.0146258064
2760.77175	0.0146188717
2759.34204	0.0146197556
2757.91233	0.0146217365
2756.48262	0.0146159809
2755.05291	0.0145977763
2753.62320	0.0145707121
2752.19348	0.0145443184
2750.76377	0.0145280976
2749.33406	0.0145249655
2747.90435	0.0145281777
2746.47464	0.0145251798
2745.04493	0.0145045966
2743.61522	0.0144653609
2742.18551	0.0144194383
2740.75580	0.0143860439
2739.32609	0.0143790068
2737.89638	0.0143966665
2736.46666	0.0144208297
2735.03695	0.0144281620
2733.60724	0.0144047746
2732.17753	0.0143549517
2730.74782	0.0142969759
2729.31811	0.0142503493
2727.88840	0.0142244026
2726.45869	0.0142148538
2725.02898	0.0142094782
2723.59927	0.0141978431
2722.16956	0.0141770886
2720.73984	0.0141510395
2719.31013	0.0141261695
2717.88042	0.0141061405
2716.45071	0.0140913259
2715.02100	0.0140804704
2713.59129	0.0140731968
2712.16158	0.0140692666
2710.73187	0.0140660582
2709.30216	0.0140583841
2707.87245	0.0140400426
2706.44274	0.0140081206
2705.01302	0.0139665501
2703.58331	0.0139242625
2702.15360	0.0138904778
2700.72389	0.0138688022
2699.29418	0.0138552524
2697.86447	0.0138419168
2696.43476	0.0138230771
2695.00505	0.0138000958
2693.57534	0.0137797603
2692.14563	0.0137682445
2690.71592	0.0137651451
2689.28620	0.0137631139
2687.85649	0.0137531478
2686.42678	0.0137324408
2684.99707	0.0137067130
2683.56736	0.0136866765
2682.13765	0.0136791961
2680.70794	0.0136816539
2679.27823	0.0136832837
2677.84852	0.0136730792
2676.41881	0.0136473542
2674.98910	0.0136110531
2673.55938	0.0135734743
2672.12967	0.0135407848
2670.69996	0.0135135194
2669.27025	0.0134893795
2667.84054	0.0134683913
2666.41083	0.0134539194
2664.98112	0.0134487404
2663.55141	0.0134513034
2662.12170	0.0134560028
2660.69199	0.0134588331
2659.26228	0.0134594198
2657.83256	0.0134603279
2656.40285	0.0134601947
2654.97314	0.0134524247
2653.54343	0.0134285819
2652.11372	0.0133867729
2650.68401	0.0133355195
2649.25430	0.0132888090
2647.82459	0.0132573694
2646.39488	0.0132426107
2644.96517	0.0132373795
2643.53546	0.0132335369
2642.10575	0.0132259578
2640.67603	0.0132137891
2639.24632	0.0131979650
2637.81661	0.0131795527
2636.38690	0.0131593533
2634.95719	0.0131395562
2633.52748	0.0131227467
2632.09777	0.0131109543
2630.66806	0.0131045245
2629.23835	0.0131021505
2627.80864	0.0131004695
2626.37893	0.0130936131
2624.94921	0.0130756861
2623.51950	0.0130442614
2622.08979	0.0130041707
2620.66008	0.0129674971
2619.23037	0.0129461344
2617.80066	0.0129438406
2616.37095	0.0129545620
2614.94124	0.0129667502
2613.51153	0.0129718175
2612.08182	0.0129687507
2610.65211	0.0129613895
2609.22239	0.0129532013
2607.79268	0.0129442411
2606.36297	0.0129329069
2604.93326	0.0129193859
2603.50355	0.0129066920
2602.07384	0.0128981052
2600.64413	0.0128941853
2599.21442	0.0128925322
2597.78471	0.0128898127
2596.35500	0.0128850127
2594.92529	0.0128814932
2593.49557	0.0128851188
2592.06586	0.0128999725
2590.63615	0.0129250931
2589.20644	0.0129531752
2587.77673	0.0129729379
2586.34702	0.0129739773
2584.91731	0.0129516544
2583.48760	0.0129100252
2582.05789	0.0128612546
2580.62818	0.0128203267
2579.19847	0.0127987312
2577.76875	0.0127996383
2576.33904	0.0128172878
2574.90933	0.0128416568
2573.47962	0.0128651736
2572.04991	0.0128850928
2570.62020	0.0129035721
2569.19049	0.0129233329
2567.76078	0.0129450141
2566.33107	0.0129668834
2564.90136	0.0129860062
2563.47165	0.0129996622
2562.04193	0.0130067579
2560.61222	0.0130088646
2559.18251	0.0130107850
2557.75280	0.0130188670
2556.32309	0.0130371926
2554.89338	0.0130634950
2553.46367	0.0130894519
2552.03396	0.0131053524
2550.60425	0.0131070064
2549.17454	0.0130984420
2547.74483	0.0130878240
2546.31511	0.0130810747
2544.88540	0.0130776865
2543.45569	0.0130742984
2542.02598	0.0130700301
2540.59627	0.0130708041
2539.16656	0.0130860899
2537.73685	0.0131218135
2536.30714	0.0131753637
2534.87743	0.0132363392
2533.44772	0.0132921720
2532.01801	0.0133342119
2530.58829	0.0133600514
2529.15858	0.0133729447
2527.72887	0.0133795124
2526.29916	0.0133877080
2524.86945	0.0134043936
2523.43974	0.0134310378
2522.01003	0.0134626506
2520.58032	0.0134891393
2519.15061	0.0135010751
2517.72090	0.0134947998
2516.29119	0.0134750139
2514.86147	0.0134520512
2513.43176	0.0134365112
2512.00205	0.0134345889
2510.57234	0.0134453494
2509.14263	0.0134631312
2507.71292	0.0134821963
2506.28321	0.0135008078
2504.85350	0.0135219581
2503.42379	0.0135509064
2501.99408	0.0135896858
2500.56437	0.0136351204
2499.13465	0.0136809060
2497.70494	0.0137219680
2496.27523	0.0137571292
2494.84552	0.0137879374
2493.41581	0.0138162887
2491.98610	0.0138428789
2490.55639	0.0138674397
2489.12668	0.0138897561
2487.69697	0.0139087858
2486.26726	0.0139228459
2484.83755	0.0139296353
2483.40784	0.0139288595
2481.97812	0.0139234336
2480.54841	0.0139202261
2479.11870	0.0139266141
2477.68899	0.0139467688
2476.25928	0.0139794080
2474.82957	0.0140192686
2473.39986	0.0140591860
2471.97015	0.0140938396
2470.54044	0.0141202863
2469.11073	0.0141382031
2467.68102	0.0141486861
2466.25130	0.0141538214
2464.82159	0.0141563350
2463.39188	0.0141585283
2461.96217	0.0141623793
2460.53246	0.0141695999
2459.10275	0.0141821168
2457.67304	0.0142027382
2456.24333	0.0142325880
2454.81362	0.0142682986
2453.38391	0.0143021662
2451.95420	0.0143254679
2450.52448	0.0143330395
2449.09477	0.0143268593
2447.66506	0.0143135628
2446.23535	0.0143006146
2444.80564	0.0142938728
2443.37593	0.0142966015
2441.94622	0.0143108871
2440.51651	0.0143367853
2439.08680	0.0143710598
2437.65709	0.0144060589
2436.22738	0.0144325783
2434.79766	0.0144430678
2433.36795	0.0144360838
2431.93824	0.0144158797
2430.50853	0.0143906996
2429.07882	0.0143691599
2427.64911	0.0143579757
2426.21940	0.0143603571
2424.78969	0.0143751800
2423.35998	0.0143988337
2421.93027	0.0144260749
2420.50056	0.0144537995
2419.07084	0.0144814728
2417.64113	0.0145098427
2416.21142	0.0145381344
2414.78171	0.0145621458
2413.35200	0.0145754227
2411.92229	0.0145745128
2410.49258	0.0145614231
2409.06287	0.0145434076
2407.63316	0.0145288464
2406.20345	0.0145224230
2404.77374	0.0145238945
2403.34402	0.0145287393
2401.91431	0.0145318983
2400.48460	0.0145297572
2399.05489	0.0145214321
2397.62518	0.0145105654
2396.19547	0.0145036597
2394.76576	0.0145079158
2393.33605	0.0145260897
2391.90634	0.0145546775
2390.47663	0.0145855425
2389.04692	0.0146121252
2387.61720	0.0146332225
2386.18749	0.0146515891
2384.75778	0.0146704121
2383.32807	0.0146890478
2381.89836	0.0147030251
2380.46865	0.0147085413
2379.03894	0.0147062922
2377.60923	0.0147044975
2376.17952	0.0147157442
2374.74981	0.0147500485
2373.32010	0.0148048718
2371.89038	0.0148584684
2370.46067	0.0148756662
2369.03096	0.0148267001
2367.60125	0.0147126112
2366.17154	0.0145732276
2364.74183	0.0144656552
2363.31212	0.0144246304
2361.88241	0.0144373681
2360.45270	0.0144567164
2359.02299	0.0144411679
2357.59328	0.0143868998
2356.16356	0.0143259494
2354.73385	0.0142971631
2353.30414	0.0143193686
2351.87443	0.0143859629
2350.44472	0.0144783678
2349.01501	0.0145778060
2347.58530	0.0146700097
2346.15559	0.0147447195
2344.72588	0.0147959795
2343.29617	0.0148218526
2341.86646	0.0148259774
2340.43674	0.0148148080
2339.00703	0.0147949345
2337.57732	0.0147710722
2336.14761	0.0147431931
2334.71790	0.0147053543
2333.28819	0.0146503570
2331.85848	0.0145794917
2330.42877	0.0145070059
2328.99906	0.0144559136
2327.56935	0.0144397235
2326.13964	0.0144539867
2324.70993	0.0144802146
2323.28021	0.0145024825
2321.85050	0.0145181939
2320.42079	0.0145370103
2318.99108	0.0145671777
2317.56137	0.0146064498
2316.13166	0.0146425394
2314.70195	0.0146634234
2313.27224	0.0146653783
2311.84253	0.0146554708
2310.41282	0.0146458857
2308.98311	0.0146455383
2307.55339	0.0146553637
2306.12368	0.0146696353
2304.69397	0.0146800242
2303.26426	0.0146825947
2301.83455	0.0146793546
2300.40484	0.0146773467
2298.97513	0.0146838799
2297.54542	0.0147019811
2296.11571	0.0147279557
2294.68600	0.0147528071
2293.25629	0.0147670815
2291.82657	0.0147650456
2290.39686	0.0147483079
2288.96715	0.0147243943
2287.53744	0.0147019271
2286.10773	0.0146859679
2284.67802	0.0146753117
2283.24831	0.0146643603
2281.81860	0.0146482158
2280.38889	0.0146268504
2278.95918	0.0146049773
2277.52947	0.0145904683
2276.09975	0.0145901470
2274.67004	0.0146073066
2273.24033	0.0146396207
2271.81062	0.0146786319
2270.38091	0.0147116212
2268.95120	0.0147279287
2267.52149	0.0147249028
2266.09178	0.0147089157
2264.66207	0.0146908415
2263.23236	0.0146784447
2261.80265	0.0146724731
2260.37293	0.0146700637
2258.94322	0.0146695813
2257.51351	0.0146726342
2256.08380	0.0146810412
2254.65409	0.0146932779
2253.22438	0.0147051942
2251.79467	0.0147126652
2250.36496	0.0147142718
2248.93525	0.0147108445
2247.50554	0.0147034805
2246.07583	0.0146934921
2244.64611	0.0146829160
2243.21640	0.0146745890
2241.78669	0.0146711878
2240.35698	0.0146724200
2238.92727	0.0146754459
2237.49756	0.0146759804
2236.06785	0.0146710537
2234.63814	0.0146600232
2233.20843	0.0146444133
2231.77872	0.0146278413
2230.34901	0.0146142142
2228.91929	0.0146065038
2227.48958	0.0146066109
2226.05987	0.0146149099
2224.63016	0.0146322316
2223.20045	0.0146589251
2221.77074	0.0146920998
2220.34103	0.0147239920
2218.91132	0.0147437016
2217.48161	0.0147423362
2216.05190	0.0147181815
2214.62219	0.0146781234
2213.19247	0.0146344807
2211.76276	0.0145992488
2210.33305	0.0145801343
2208.90334	0.0145782605
2207.47363	0.0145894503
2206.04392	0.0146061825
2204.61421	0.0146216834
2203.18450	0.0146327140
2201.75479	0.0146406917
2200.32508	0.0146490987
2198.89537	0.0146599421
2197.46565	0.0146720186
2196.03594	0.0146818720
2194.60623	0.0146871200
2193.17652	0.0146891819
2191.74681	0.0146929836
2190.31710	0.0147032123
2188.88739	0.0147194937
2187.45768	0.0147341415
2186.02797	0.0147353467
2184.59826	0.0147151286
2183.16855	0.0146763558
2181.73883	0.0146335699
2180.30912	0.0146043887
2178.87941	0.0145983119
2177.44970	0.0146104656
2176.01999	0.0146254851
2174.59028	0.0146292066
2173.16057	0.0146184973
2171.73086	0.0146025950
2170.30115	0.0145939477
2168.87144	0.0145971337
2167.44173	0.0146043086
2166.01202	0.0146012567
2164.58230	0.0145791173
2163.15259	0.0145424977
2161.72288	0.0145082101
2160.29317	0.0144935166
2158.86346	0.0145049980
2157.43375	0.0145346280
2156.00404	0.0145654920
2154.57433	0.0145824105
2153.14462	0.0145787960
2151.71491	0.0145580499
2150.28520	0.0145284189
2148.85548	0.0144979861
2147.42577	0.0144713558
2145.99606	0.0144497314
2144.56635	0.0144318016
2143.13664	0.0144157456
2141.70693	0.0143998507
2140.27722	0.0143832611
2138.84751	0.0143656284
2137.41780	0.0143472198
2135.98809	0.0143305780
2134.55838	0.0143196629
2133.12866	0.0143192615
2131.69895	0.0143318893
2130.26924	0.0143546574
2128.83953	0.0143794883
2127.40982	0.0143955164
2125.98011	0.0143948207
2124.55040	0.0143762240
2123.12069	0.0143462569
2121.69098	0.0143152745
2120.26127	0.0142931771
2118.83156	0.0142847504
2117.40184	0.0142886825
2115.97213	0.0142992763
2114.54242	0.0143089881
2113.11271	0.0143114496
2111.68300	0.0143029420
2110.25329	0.0142834131
2108.82358	0.0142559670
2107.39387	0.0142263025
2105.96416	0.0142016411
2104.53445	0.0141887227
2103.10474	0.0141916648
2101.67502	0.0142095052
2100.24531	0.0142351827
2098.81560	0.0142585346
2097.38589	0.0142701175
2095.95618	0.0142669613
2094.52647	0.0142526226
2093.09676	0.0142347813
2091.66705	0.0142207388
2090.23734	0.0142142121
2088.80763	0.0142154694
2087.37792	0.0142217819
2085.94820	0.0142283887
2084.51849	0.0142289773
2083.08878	0.0142196957
2081.65907	0.0142004909
2080.22936	0.0141769815
2078.79965	0.0141561478
2077.36994	0.0141424555
2075.94023	0.0141352080
2074.51052	0.0141298594
2073.08081	0.0141218370
2071.65110	0.0141091887
2070.22138	0.0140933050
2068.79167	0.0140782241
2067.36196	0.0140690524
2065.93225	0.0140691865
2064.50254	0.0140777966
2063.07283	0.0140895611
2061.64312	0.0140969148
2060.21341	0.0140943741
2058.78370	0.0140810851
2057.35399	0.0140604433
2055.92428	0.0140366470
2054.49456	0.0140122641
2053.06485	0.0139875887
2051.63514	0.0139616048
2050.20543	0.0139345266
2048.77572	0.0139081711
2047.34601	0.0138861742
2045.91630	0.0138713950
2044.48659	0.0138649270
2043.05688	0.0138653545
2041.62717	0.0138705131
2040.19746	0.0138786379
2038.76774	0.0138885528
2037.33803	0.0138980681
2035.90832	0.0139031736
2034.47861	0.0138987368
2033.04890	0.0138812838
2031.61919	0.0138522061
2030.18948	0.0138186673
2028.75977	0.0137908766
2027.33006	0.0137770623
2025.90035	0.0137784509
2024.47064	0.0137878302
2023.04092	0.0137930410
2021.61121	0.0137839559
2020.18150	0.0137584647
2018.75179	0.0137230633
2017.32208	0.0136896688
2015.89237	0.0136676822
2014.46266	0.0136596421
2013.03295	0.0136615653
2011.60324	0.0136670684
2010.17353	0.0136721171
2008.74382	0.0136768455
2007.31411	0.0136835510
2005.88439	0.0136933820
2004.45468	0.0137040149
2003.02497	0.0137112280
2001.59526	0.0137121631
2000.16555	0.0137079153
1998.73584	0.0137023581
1997.30613	0.0136990184
1995.87642	0.0136978971
1994.44671	0.0136953853
1993.01700	0.0136875045
1991.58729	0.0136731323
1990.15757	0.0136562493
1988.72786	0.0136431865
1987.29815	0.0136388326
1985.86844	0.0136435339
1984.43873	0.0136534441
1983.00902	0.0136628207
1981.57931	0.0136677632
1980.14960	0.0136682969
1978.71989	0.0136679234
1977.29018	0.0136699267
1975.86047	0.0136752957
1974.43075	0.0136804515
1973.00104	0.0136799710
1971.57133	0.0136694722
1970.14162	0.0136490371
1968.71191	0.0136248628
1967.28220	0.0136077683
1965.85249	0.0136084361
1964.42278	0.0136302849
1962.99307	0.0136667211
1961.56336	0.0137028927
1960.13365	0.0137233036
1958.70393	0.0137206055
1957.27422	0.0137006752
1955.84451	0.0136802383
1954.41480	0.0136775933
1952.98509	0.0137008354
1951.55538	0.0137430746
1950.12567	0.0137872957
1948.69596	0.0138177583
1947.26625	0.0138291158
1945.83654	0.0138275130
1944.40683	0.0138227027
1942.97711	0.0138197625
1941.54740	0.0138161285
1940.11769	0.0138062416
1938.68798	0.0137883648
1937.25827	0.0137660000
1935.82856	0.0137454262
1934.39885	0.0137309982
1932.96914	0.0137241585
1931.53943	0.0137251476
1930.10972	0.0137347393
1928.68001	0.0137550179
1927.25029	0.0137879904
1925.82058	0.0138322162
1924.39087	0.0138813639
1922.96116	0.0139247170
1921.53145	0.0139516070
1920.10174	0.0139565794
1918.67203	0.0139425453
1917.24232	0.0139189167
1915.81261	0.0138968918
1914.38290	0.0138845444
1912.95319	0.0138856135
1911.52347	0.0138997789
1910.09376	0.0139239151
1908.66405	0.0139521416
1907.23434	0.0139787132
1905.80463	0.0140003674
1904.37492	0.0140190283
1902.94521	0.0140388394
1901.51550	0.0140630631
1900.08579	0.0140903639
1898.65608	0.0141153121
1897.22637	0.0141327474
1895.79665	0.0141421081
1894.36694	0.0141468681
1892.93723	0.0141519224
1891.50752	0.0141590359
1890.07781	0.0141666848
1888.64810	0.0141728092
1887.21839	0.0141797364
1885.78868	0.0141931893
1884.35897	0.0142187057
1882.92926	0.0142561272
1881.49955	0.0142988758
1880.06983	0.0143383099
1878.64012	0.0143692400
1877.21041	0.0143940710
1875.78070	0.0144197065
1874.35099	0.0144517925
1872.92128	0.0144884307
1871.49157	0.0145206293
1870.06186	0.0145380013
1868.63215	0.0145376530
1867.20244	0.0145291677
1865.77273	0.0145269735
1864.34301	0.0145388842
1862.91330	0.0145629486
1861.48359	0.0145925023
1860.05388	0.0146218706
1858.62417	0.0146493930
1857.19446	0.0146754989
1855.76475	0.0147014456
1854.33504	0.0147292679
1852.90533	0.0147613771
1851.47562	0.0147988722
1850.04591	0.0148372808
1848.61619	0.0148661034
1847.18648	0.0148741659
1845.75677	0.0148597006
1844.32706	0.0148367714
1842.89735	0.0148277450
1841.46764	0.0148459328
1840.03793	0.0148869706
1838.60822	0.0149359163
1837.17851	0.0149797229
1835.74880	0.0150139146
1834.31909	0.0150421858
1832.88938	0.0150697883
1831.45966	0.0150984926
1830.02995	0.0151240351
1828.60024	0.0151412701
1827.17053	0.0151503570
1825.74082	0.0151571650
1824.31111	0.0151685039
1822.88140	0.0151864113
1821.45169	0.0152086345
1820.02198	0.0152322538
1818.59227	0.0152570801
1817.16256	0.0152850728
1815.73284	0.0153168477
1814.30313	0.0153484633
1812.87342	0.0153723042
1811.44371	0.0153822815
1810.01400	0.0153798405
1808.58429	0.0153747452
1807.15458	0.0153800817
1805.72487	0.0154034691
1804.29516	0.0154430047
1802.86545	0.0154897058
1801.43574	0.0155338906
1800.00602	0.0155713176
1798.57631	0.0156041328
1797.14660	0.0156350192
1795.71689	0.0156635195
1794.28718	0.0156874843
1792.85747	0.0157089010
1791.42776	0.0157358218
1789.99805	0.0157760587
1788.56834	0.0158298574
1787.13863	0.0158899706
1785.70892	0.0159477573
1784.27920	0.0159983281
1782.84949	0.0160416774
1781.41978	0.0160821024
1779.99007	0.0161248706
1778.56036	0.0161730424
1777.13065	0.0162255988
1775.70094	0.0162773300
1774.27123	0.0163212996
1772.84152	0.0163532570
1771.41181	0.0163773149
1769.98210	0.0164045729
1768.55238	0.0164442267
1767.12267	0.0164979454
1765.69296	0.0165613256
1764.26325	0.0166272707
1762.83354	0.0166882481
1761.40383	0.0167380162
1759.97412	0.0167752784
1758.54441	0.0168048497
1757.11470	0.0168340709
1755.68499	0.0168671981
1754.25528	0.0169022102
1752.82556	0.0169342645
1751.39585	0.0169622842
1749.96614	0.0169936176
1748.53643	0.0170411859
1747.10672	0.0171131808
1745.67701	0.0172073524
1744.24730	0.0173144490
1742.81759	0.0174245071
1741.38788	0.0175305512
1739.95817	0.0176287498
1738.52846	0.0177175328
1737.09874	0.0177961122
1735.66903	0.0178643484
1734.23932	0.0179262552
1732.80961	0.0179911405
1731.37990	0.0180680696
1729.95019	0.0181585886
1728.52048	0.0182570089
1727.09077	0.0183581002
1725.66106	0.0184605643
1724.23135	0.0185664017
1722.80164	0.0186760481
1721.37192	0.0187845882
1719.94221	0.0188821517
1718.51250	0.0189594273
1717.08279	0.0190188419
1715.65308	0.0190774240
1714.22337	0.0191518944
1712.79366	0.0192459412
1711.36395	0.0193537306
1709.93424	0.0194697231
1708.50453	0.0195913501
1707.07482	0.0197176449
1705.64510	0.0198461972
1704.21539	0.0199715104
1702.78568	0.0200847648
1701.35597	0.0201780107
1699.92626	0.0202506091
1698.49655	0.0203160588
1697.06684	0.0203957893
1695.63713	0.0205019098
1694.20742	0.0206314288
1692.77771	0.0207745899
1691.34800	0.0209237728
1689.91828	0.0210736878
1688.48857	0.0212193877
1687.05886	0.0213544499
1685.62915	0.0214734524
1684.19944	0.0215792656
1682.76973	0.0216829274
1681.34002	0.0217915680
1679.91031	0.0219018422
1678.48060	0.0220057722
1677.05089	0.0220994577
1675.62118	0.0221850723
1674.19147	0.0222679265
1672.76175	0.0223512575
1671.33204	0.0224349052
1669.90233	0.0225195233
1668.47262	0.0226077028
1667.04291	0.0226988196
1665.61320	0.0227862168
1664.18349	0.0228602346
1662.75378	0.0229182467
1661.32407	0.0229700170
1659.89436	0.0230295714
1658.46465	0.0231017750
1657.03493	0.0231735799
1655.60522	0.0232173800
1654.17551	0.0232061557
1652.74580	0.0231447201
1651.31609	0.0230737105
1649.88638	0.0230215192
1648.45667	0.0229730736
1647.02696	0.0228987094
1645.59725	0.0227944832
1644.16754	0.0226883739
1642.73783	0.0226103216
1641.30811	0.0225637741
1639.87840	0.0225220863
1638.44869	0.0224395115
1637.01898	0.0222756378
1635.58927	0.0220344476
1634.15956	0.0217739306
1632.72985	0.0215529315
1631.30014	0.0213829465
1629.87043	0.0212396663
1628.44072	0.0210917052
1627.01101	0.0209202413
1625.58129	0.0207272340
1624.15158	0.0205323324
1622.72187	0.0203552581
1621.29216	0.0201969929
1619.86245	0.0200393032
1618.43274	0.0198611561
1617.00303	0.0196596794
1615.57332	0.0194572415
1614.14361	0.0192817412
1612.71390	0.0191411283
1611.28419	0.0190205444
1609.85447	0.0189011041
1608.42476	0.0187755059
1606.99505	0.0186523236
1605.56534	0.0185444914
1604.13563	0.0184568372
1602.70592	0.0183822140
1601.27621	0.0183088202
1599.84650	0.0182293653
1598.41679	0.0181439873
1596.98708	0.0180578958
1595.55737	0.0179780275
1594.12765	0.0179096647
1592.69794	0.0178543143
1591.26823	0.0178095158
1589.83852	0.0177706555
1588.40881	0.0177347623
1586.97910	0.0177018121
1585.54939	0.0176729094
1584.11968	0.0176471081
1582.68997	0.0176206362
1581.26026	0.0175875593
1579.83055	0.0175428148
1578.40083	0.0174847357
1576.97112	0.0174193606
1575.54141	0.0173601396
1574.11170	0.0173190814
1572.68199	0.0172955915
1571.25228	0.0172791053
1569.82257	0.0172607359
1568.39286	0.0172449518
1566.96315	0.0172474571
1565.53344	0.0172806419
1564.10373	0.0173395555
1562.67401	0.0173990987
1561.24430	0.0174185522
1559.81459	0.0173601117
1558.38488	0.0172342323
1556.95517	0.0171135571
1555.52546	0.0170550775
1554.09575	0.0170493443
1552.66604	0.0170625355
1551.23633	0.0170743559
1549.80662	0.0170852859
1548.37691	0.0171059649
1546.94719	0.0171431247
1545.51748	0.0171891730
1544.08777	0.0172203872
1542.65806	0.0172084030
1541.22835	0.0171475410
1539.79864	0.0170746781
1538.36893	0.0170328673
1536.93922	0.0170273222
1535.50951	0.0170355327
1534.07980	0.0170366354
1532.65009	0.0170232300
1531.22037	0.0170014519
1529.79066	0.0169819891
1528.36095	0.0169714913
1526.93124	0.0169679914
1525.50153	0.0169621501
1524.07182	0.0169413164
1522.64211	0.0168967210
1521.21240	0.0168315955
1519.78269	0.0167606436
1518.35298	0.0167015102
1516.92327	0.0166636351
1515.49356	0.0166469868
1514.06384	0.0166448075
1512.63413	0.0166459903
1511.20442	0.0166346133
1509.77471	0.0165926833
1508.34500	0.0165130030
1506.91529	0.0164226927
1505.48558	0.0163721275
1504.05587	0.0163810514
1502.62616	0.0164256226
1501.19645	0.0164699294
1499.76674	0.0164876208
1498.33702	0.0164697673
1496.90731	0.0164289027
1495.47760	0.0163888205
1494.04789	0.0163650569
1492.61818	0.0163556505
1491.18847	0.0163497087
1489.75876	0.0163391195
1488.32905	0.0163258687
1486.89934	0.0163169447
1485.46963	0.0163159240
1484.03992	0.0163198207
1482.61020	0.0163239874
1481.18049	0.0163257886
1479.75078	0.0163250081
1478.32107	0.0163201969
1476.89136	0.0163071621
1475.46165	0.0162811466
1474.03194	0.0162456464
1472.60223	0.0162167046
1471.17252	0.0162125137
1469.74281	0.0162370466
1468.31310	0.0162787549
1466.88338	0.0163196065
1465.45367	0.0163443871
1464.02396	0.0163470209
1462.59425	0.0163315926
1461.16454	0.0163074043
1459.73483	0.0162832420
1458.30512	0.0162658822
1456.87541	0.0162613131
1455.44570	0.0162729230
1454.01599	0.0162971634
1452.58628	0.0163255725
1451.15656	0.0163484998
1449.72685	0.0163589288
1448.29714	0.0163562670
1446.86743	0.0163483117
1445.43772	0.0163466446
1444.00801	0.0163574498
1442.57830	0.0163768586
1441.14859	0.0163939539
1439.71888	0.0163982026
1438.28917	0.0163862389
1436.85946	0.0163654871
1435.42974	0.0163497906
1434.00003	0.0163472909
1432.57032	0.0163551662
1431.14061	0.0163657833
1429.71090	0.0163775031
1428.28119	0.0163970739
1426.85148	0.0164341722
1425.42177	0.0164906867
1423.99206	0.0165557601
1422.56235	0.0166096538
1421.13264	0.0166346934
1419.70292	0.0166272167
1418.27321	0.0166002400
1416.84350	0.0165720023
1415.41379	0.0165519416
1413.98408	0.0165386833
1412.55437	0.0165298097
1411.12466	0.0165262334
1409.69495	0.0165315848
1408.26524	0.0165470466
1406.83553	0.0165687483
1405.40582	0.0165896714
1403.97610	0.0166040063
1402.54639	0.0166083090
1401.11668	0.0166018270
1399.68697	0.0165851526
1398.25726	0.0165607873
1396.82755	0.0165348910
1395.39784	0.0165168755
1393.96813	0.0165144280
1392.53842	0.0165290032
1391.10871	0.0165549256
1389.67900	0.0165840238
1388.24928	0.0166090615
1386.81957	0.0166274048
1385.38986	0.0166407190
1383.96015	0.0166516118
1382.53044	0.0166603271
1381.10073	0.0166645497
1379.67102	0.0166632589
1378.24131	0.0166600309
1376.81160	0.0166617800
1375.38189	0.0166749340
1373.95218	0.0167002734
1372.52246	0.0167330671
1371.09275	0.0167664271
1369.66304	0.0167953502
1368.23333	0.0168166086
1366.80362	0.0168269407
1365.37391	0.0168235768
1363.94420	0.0168077275
1362.51449	0.0167881139
1361.08478	0.0167791806
1359.65507	0.0167917460
1358.22536	0.0168254599
1356.79565	0.0168688390
1355.36593	0.0169065427
1353.93622	0.0169276986
1352.50651	0.0169314388
1351.07680	0.0169261377
1349.64709	0.0169226117
1348.21738	0.0169280209
1346.78767	0.0169422589
1345.35796	0.0169614498
1343.92825	0.0169835761
1342.49854	0.0170100648
1341.06883	0.0170446057
1339.63911	0.0170884635
1338.20940	0.0171377379
1336.77969	0.0171855651
1335.34998	0.0172258820
1333.92027	0.0172552131
1332.49056	0.0172715914
1331.06085	0.0172739606
1329.63114	0.0172638595
1328.20143	0.0172481295
1326.77172	0.0172353629
1325.34201	0.0172314309
1323.91229	0.0172346625
1322.48258	0.0172388908
1321.05287	0.0172420703
1319.62316	0.0172507148
1318.19345	0.0172764938
1316.76374	0.0173255466
1315.33403	0.0173914731
1313.90432	0.0174598340
1312.47461	0.0175183155
1311.04490	0.0175637305
1309.61519	0.0176007673
1308.18547	0.0176346544
1306.75576	0.0176674910
1305.32605	0.0176983345
1303.89634	0.0177271850
1302.46663	0.0177565236
1301.03692	0.0177894775
1299.60721	0.0178288799
1298.17750	0.0178755149
1296.74779	0.0179287381
1295.31808	0.0179859065
1293.88837	0.0180415977
1292.45865	0.0180895235
1291.02894	0.0181246884
1289.59923	0.0181467663
1288.16952	0.0181616116
1286.73981	0.0181789398
1285.31010	0.0182076879
1283.88039	0.0182503145
1282.45068	0.0183010176
1281.02097	0.0183475949
1279.59126	0.0183785688
1278.16155	0.0183897484
1276.73183	0.0183867253
1275.30212	0.0183814578
1273.87241	0.0183862112
1272.44270	0.0184075460
1271.01299	0.0184454657
1269.58328	0.0184962992
1268.15357	0.0185553785
1266.72386	0.0186182223
1265.29415	0.0186789129
1263.86444	0.0187291000
1262.43473	0.0187603161
1261.00501	0.0187685862
1259.57530	0.0187587477
1258.14559	0.0187434778
1256.71588	0.0187350716
1255.28617	0.0187386125
1253.85646	0.0187503975
1252.42675	0.0187638849
1250.99704	0.0187760480
1249.56733	0.0187898595
1248.13762	0.0188089162
1246.70791	0.0188326500
1245.27819	0.0188547112
1243.84848	0.0188683085
1242.41877	0.0188714191
1240.98906	0.0188673623
1239.55935	0.0188614968
1238.12964	0.0188570619
1236.69993	0.0188546833
1235.27022	0.0188543871
1233.84051	0.0188566577
1232.41080	0.0188617930
1230.98109	0.0188687686
1229.55137	0.0188758783
1228.12166	0.0188835301
1226.69195	0.0188950486
1225.26224	0.0189152174
1223.83253	0.0189442858
1222.40282	0.0189751666
1220.97311	0.0189958811
1219.54340	0.0189966373
1218.11369	0.0189768691
1216.68398	0.0189467464
1215.25427	0.0189218149
1213.82455	0.0189160835
1212.39484	0.0189351998
1210.96513	0.0189764109
1209.53542	0.0190304704
1208.10571	0.0190857016
1206.67600	0.0191310104
1205.24629	0.0191593338
1203.81658	0.0191697776
1202.38687	0.0191682354
1200.95716	0.0191654749
1199.52745	0.0191726461
1198.09774	0.0191960745
1196.66802	0.0192338731
1195.23831	0.0192774385
1193.80860	0.0193170048
1192.37889	0.0193496440
1190.94918	0.0193834491
1189.51947	0.0194338784
1188.08976	0.0195145570
1186.66005	0.0196278840
1185.23034	0.0197623707
1183.80063	0.0198988225
1182.37092	0.0200205166
1180.94120	0.0201202556
1179.51149	0.0202005189
1178.08178	0.0202680212
1176.65207	0.0203304086
1175.22236	0.0203944854
1173.79265	0.0204662792
1172.36294	0.0205499176
1170.93323	0.0206453260
1169.50352	0.0207485221
1168.07381	0.0208549742
1166.64410	0.0209633522
1165.21438	0.0210754536
1163.78467	0.0211914182
1162.35496	0.0213048290
1160.92525	0.0214043465
1159.49554	0.0214813389
1158.06583	0.0215369090
1156.63612	0.0215823669
1155.20641	0.0216310378
1153.77670	0.0216889959
1152.34699	0.0217538718
1150.91728	0.0218197946
1149.48756	0.0218846910
1148.05785	0.0219519660
1146.62814	0.0220262781
1145.19843	0.0221095905
1143.76872	0.0222007930
1142.33901	0.0222980361
1140.90930	0.0224013515
1139.47959	0.0225118361
1138.04988	0.0226309374
1136.62017	0.0227586646
1135.19046	0.0228943974
1133.76074	0.0230369680
1132.33103	0.0231843386
1130.90132	0.0233351998
1129.47161	0.0234884080
1128.04190	0.0236447062
1126.61219	0.0238049701
1125.18248	0.0239701606
1123.75277	0.0241407529
1122.32306	0.0243172701
1120.89335	0.0244992264
1119.46364	0.0246847663
1118.03392	0.0248693973
1116.60421	0.0250481032
1115.17450	0.0252178013
1113.74479	0.0253801011
1112.31508	0.0255399086
1110.88537	0.0257021096
1109.45566	0.0258671176
1108.02595	0.0260293595
1106.59624	0.0261788201
1105.16653	0.0263051745
1103.73682	0.0264023244
1102.30710	0.0264699720
1100.87739	0.0265124813
1099.44768	0.0265356228
1098.01797	0.0265425295
1096.58826	0.0265335310
1095.15855	0.0265074745
1093.72884	0.0264655985
1092.29913	0.0264125839
1090.86942	0.0263551772
1089.43971	0.0262989867
1088.01000	0.0262453891
1086.58028	0.0261914954
1085.15057	0.0261334013
1083.72086	0.0260698460
1082.29115	0.0260042381
1080.86144	0.0259421859
1079.43173	0.0258852523
1078.00202	0.0258285180
1076.57231	0.0257628653
1075.14260	0.0256825276
1073.71289	0.0255911965
1072.28318	0.0255005695
1070.85346	0.0254213251
1069.42375	0.0253544431
1067.99404	0.0252894647
1066.56433	0.0252119042
1065.13462	0.0251124706
1063.70491	0.0249916166
1062.27520	0.0248562675
1060.84549	0.0247147419
1059.41578	0.0245730709
1057.98607	0.0244362373
1056.55636	0.0243087001
1055.12664	0.0241935719
1053.69693	0.0240907855
1052.26722	0.0239966419
1050.83751	0.0239049532
1049.40780	0.0238082502
1047.97809	0.0236995965
1046.54838	0.0235747620
1045.11867	0.0234355666
1043.68896	0.0232905429
1042.25925	0.0231514368
1040.82954	0.0230263788
1039.39983	0.0229162816
1037.97011	0.0228152443
1036.54040	0.0227156207
1035.11069	0.0226109214
1033.68098	0.0224970859
1032.25127	0.0223741233
1030.82156	0.0222488251
1029.39185	0.0221356582
1027.96214	0.0220518224
1026.53243	0.0220081415
1025.10272	0.0220022853
1023.67301	0.0220192522
1022.24329	0.0220396761
1020.81358	0.0220478736
1019.38387	0.0220392123
1017.95416	0.0220206939
1016.52445	0.0220075138
1015.09474	0.0220148396
1013.66503	0.0220477656
1012.23532	0.0220998395
1010.80561	0.0221602824
1009.37590	0.0222261306
1007.94619	0.0223057196
1006.51647	0.0224109460
1005.08676	0.0225443896
1003.65705	0.0226948094
1002.22734	0.0228446014
1000.79763	0.0229807142
999.36792	0.0230988543
997.93821	0.0232000947
996.50850	0.0232859273
995.07879	0.0233576801
993.64908	0.0234176721
992.21937	0.0234682169
990.78965	0.0235087108
989.35994	0.0235334411
987.93023	0.0235350002
986.50052	0.0235093124
985.07081	0.0234583803
983.64110	0.0233890954
982.21139	0.0233103447
980.78168	0.0232304875
979.35197	0.0231542755
977.92226	0.0230800994
976.49255	0.0230000392
975.06283	0.0229042750
973.63312	0.0227876902
972.20341	0.0226547997
970.77370	0.0225158166
969.34399	0.0223811287
967.91428	0.0222554468
966.48457	0.0221388172
965.05486	0.0220308527
963.62515	0.0219344050
962.19544	0.0218552090
960.76573	0.0217977185
959.33601	0.0217612758
957.90630	0.0217389595
956.47659	0.0217215419
955.04688	0.0217019748
953.61717	0.0216777846
952.18746	0.0216497574
950.75775	0.0216193944
949.32804	0.0215881616
947.89833	0.0215572845
946.46862	0.0215281229
945.03891	0.0215020105
943.60919	0.0214800071
942.17948	0.0214641225
940.74977	0.0214577578
939.32006	0.0214631986
937.89035	0.0214787833
936.46064	0.0214981474
935.03093	0.0215143058
933.60122	0.0215242878
932.17151	0.0215291288
930.74180	0.0215288308
929.31209	0.0215181950
927.88237	0.0214893632
926.45266	0.0214394275
925.02295	0.0213750880
923.59324	0.0213105660
922.16353	0.0212584231
920.73382	0.0212228391
919.30411	0.0211985931
917.87440	0.0211755726
916.44469	0.0211449955
915.01498	0.0211033616
913.58527	0.0210532546
912.15555	0.0210028272
910.72584	0.0209621303
909.29613	0.0209396109
907.86642	0.0209389590
906.43671	0.0209580287
905.00700	0.0209903289
903.57729	0.0210273601
902.14758	0.0210604817
900.71787	0.0210808348
899.28816	0.0210816767
897.85845	0.0210604817
896.42873	0.0210239924
894.99902	0.0209888890
893.56931	0.0209765006
892.13960	0.0210009255
890.70989	0.0210598838
889.28018	0.0211360268
887.85047	0.0212079436
886.42076	0.0212644842
884.99105	0.0213096961
883.56134	0.0213570055
882.13163	0.0214198753
880.70192	0.0215052739
879.27220	0.0216125641
877.84249	0.0217353385
876.41278	0.0218605716
874.98307	0.0219714344
873.55336	0.0220528580
872.12365	0.0220963527
870.69394	0.0221039522
869.26423	0.0220860299
867.83452	0.0220563170
866.40481	0.0220282115
864.97510	0.0220126882
863.54538	0.0220157113
862.11567	0.0220382065
860.68596	0.0220745094
859.25625	0.0221140571
857.82654	0.0221443754
856.39683	0.0221560616
854.96712	0.0221472345
853.53741	0.0221251976
852.10770	0.0221025087
850.67799	0.0220888909
849.24828	0.0220833886
847.81856	0.0220748354
846.38885	0.0220488533
844.95914	0.0219967850
843.52943	0.0219223704
842.09972	0.0218396652
840.67001	0.0217684340
839.24030	0.0217254329
837.81059	0.0217173509
836.38088	0.0217357464
834.95117	0.0217587706
833.52146	0.0217608120
832.09174	0.0217257589
830.66203	0.0216558538
829.23232	0.0215709675
827.80261	0.0214985013
826.37290	0.0214600153
824.94319	0.0214616209
823.51348	0.0214914847
822.08377	0.0215230361
820.65406	0.0215265732
819.22435	0.0214824807
817.79464	0.0213920828
816.36492	0.0212813392
814.93521	0.0211922601
813.50550	0.0211640745
812.07579	0.0212135166
810.64608	0.0213235896
809.21637	0.0214506611
807.78666	0.0215459131
806.35695	0.0215791296
804.92724	0.0215487704
803.49753	0.0214741323
802.06782	0.0213793293
800.63810	0.0212835968
799.20839	0.0212037582
797.77868	0.0211571716
796.34897	0.0211574975
794.91926	0.0212029144
793.48955	0.0212720688
792.05984	0.0213340838
790.63013	0.0213703569
789.20042	0.0213857740
787.77071	0.0214008391
786.34100	0.0214303173
784.91128	0.0214680936
783.48157	0.0214928724
782.05186	0.0214883573
780.62215	0.0214627907
779.19244	0.0214472599
777.76273	0.0214748383
776.33302	0.0215563327
774.90331	0.0216711182
773.47360	0.0217810348
772.04389	0.0218538735
770.61418	0.0218781848
769.18446	0.0218638927
767.75475	0.0218296740
766.32504	0.0217926838
764.89533	0.0217619836
763.46562	0.0217407271
762.03591	0.0217271205
760.60620	0.0217157174
759.17649	0.0216975398
757.74678	0.0216600969
756.31707	0.0215921327
754.88736	0.0214912947
753.45764	0.0213707909
752.02793	0.0212586951
750.59822	0.0211864430
749.16851	0.0211718753
747.73880	0.0212096833
746.30909	0.0212763920
744.87938	0.0213452596
743.44967	0.0213991795
742.01996	0.0214336086
740.59025	0.0214526448
739.16054	0.0214639325
737.73082	0.0214784015
736.30111	0.0215089191
734.87140	0.0215651188
733.44169	0.0216482896
732.01198	0.0217507146
730.58227	0.0218614414
729.15256	0.0219731219
727.72285	0.0220856760
726.29314	0.0222015828
724.86343	0.0223202445
723.43372	0.0224329438
722.00401	0.0225249771
720.57429	0.0225846078
719.14458	0.0226106495
717.71487	0.0226138942
716.28516	0.0226080846
714.85545	0.0225989781
713.42574	0.0225811992
711.99603	0.0225460790
710.56632	0.0224956423
709.13661	0.0224475544
707.70690	0.0224316344
706.27719	0.0224727411
704.84747	0.0225748718
703.41776	0.0227124020
701.98805	0.0228381082
700.55834	0.0229056664
699.12863	0.0228976160
697.69892	0.0228378884
696.26921	0.0227785781
694.83950	0.0227655116
693.40979	0.0228088871
691.98008	0.0228790622
690.55037	0.0229332019
689.12065	0.0229457542
687.69094	0.0229229126
686.26123	0.0228934418
684.83152	0.0228883401
683.40181	0.0229257792
681.97210	0.0230060443
680.54239	0.0231136773
679.11268	0.0232248623
677.68297	0.0233189743
676.25326	0.0233896691
674.82355	0.0234467126
673.39383	0.0235060342
671.96412	0.0235762391
670.53441	0.0236488059
669.10470	0.0236973818
667.67499	0.0236909315
666.24528	0.0236179456
664.81557	0.0234914143
663.38586	0.0233315397
661.95615	0.0231585354
660.52644	0.0229991376
659.09673	0.0228907410
657.66701	0.0228716955
656.23730	0.0229601916
654.80759	0.0231392868
653.37788	0.0233562868
651.94817	0.0235406011
650.51846	0.0236333888
649.08875	0.0236184932
647.65904	0.0235312004
646.22933	0.0234348550
644.79962	0.0233810358
643.36991	0.0233822390
641.94019	0.0234160591
640.51048	0.0234500188
639.08077	0.0234677251
637.65106	0.0234773420
636.22135	0.0235003773
634.79164	0.0235540476
633.36193	0.0236338824
631.93222	0.0237106960
630.50251	0.0237406045
629.07280	0.0236845072
627.64309	0.0235299990
626.21337	0.0233059730
624.78366	0.0230801255
623.35395	0.0229320824
621.92424	0.0229086410
620.49453	0.0229919869
619.06482	0.0231081638
617.63511	0.0231731441
616.20540	0.0231442824
614.77569	0.0230417736
613.34598	0.0229315367
611.91627	0.0228790622
610.48655	0.0229065679
609.05684	0.0229804423
607.62713	0.0230425652
606.19742	0.0230587516
604.76771	0.0230436828
603.33800	0.0230452660
601.90829	0.0231052693
600.47858	0.0232284386
599.04887	0.0233809538
