3997.47168	0.0579846092
3996.04197	0.0580094904
3994.61226	0.0580490790
3993.18255	0.0580960065
3991.75284	0.0581381470
3990.32312	0.0581676811
3988.89341	0.0581849068
3987.46370	0.0581968054
3986.03399	0.0582100041
3984.60428	0.0582261384
3983.17457	0.0582397841
3981.74486	0.0582435131
3980.31515	0.0582312867
3978.88544	0.0582005642
3977.45573	0.0581539199
3976.02602	0.0580995567
3974.59630	0.0580513552
3973.16659	0.0580252893
3971.73688	0.0580322109
3970.30717	0.0580695830
3968.87746	0.0581207164
3967.44775	0.0581603721
3966.01804	0.0581684820
3964.58833	0.0581402183
3963.15862	0.0580921583
3961.72891	0.0580558218
3960.29920	0.0580603220
3958.86948	0.0581124574
3957.43977	0.0581866540
3956.01006	0.0582365580
3954.58035	0.0582216978
3953.15064	0.0581333525
3951.72093	0.0580016226
3950.29122	0.0578815825
3948.86151	0.0578214303
3947.43180	0.0578368939
3946.00209	0.0579067543
3944.57238	0.0579913855
3943.14266	0.0580575392
3941.71295	0.0580922179
3940.28324	0.0581025742
3938.85353	0.0581024289
3937.42382	0.0581007116
3935.99411	0.0581001192
3934.56440	0.0581016280
3933.13469	0.0581085831
3931.70498	0.0581252128
3930.27527	0.0581516698
3928.84556	0.0581797585
3927.41585	0.0581956804
3925.98613	0.0581867732
3924.55642	0.0581473187
3923.12671	0.0580848195
3921.69700	0.0580220334
3920.26729	0.0579926558
3918.83758	0.0580252893
3917.40787	0.0581239723
3915.97816	0.0582577512
3914.54845	0.0583756417
3913.11874	0.0584344231
3911.68903	0.0584150255
3910.25931	0.0583224371
3908.82960	0.0581740737
3907.39989	0.0579951704
3905.97018	0.0578207783
3904.54047	0.0576989278
3903.11076	0.0576784685
3901.68105	0.0577726960
3900.25134	0.0579353273
3898.82163	0.0580882840
3897.39192	0.0581741631
3895.96221	0.0581821240
3894.53249	0.0581390038
3893.10278	0.0580883436
3891.67307	0.0580663271
3890.24336	0.0580837280
3888.81365	0.0581234954
3887.38394	0.0581605211
3885.95423	0.0581795201
3884.52452	0.0581839010
3883.09481	0.0581863560
3881.66510	0.0581952967
3880.23539	0.0582047962
3878.80567	0.0581974275
3877.37596	0.0581546612
3875.94625	0.0580723062
3874.51654	0.0579693764
3873.08683	0.0578846894
3871.65712	0.0578586012
3870.22741	0.0579043888
3868.79770	0.0580000244
3867.36799	0.0581138209
3865.93828	0.0582304597
3864.50857	0.0583458580
3863.07885	0.0584383011
3861.64914	0.0584609881
3860.21943	0.0583669655
3858.78972	0.0581410751
3857.36001	0.0578243844
3855.93030	0.0575347319
3854.50059	0.0574573092
3853.07088	0.0577135906
3851.64117	0.0581915379
3850.21146	0.0586439036
3848.78175	0.0589192100
3847.35203	0.0589975454
3845.92232	0.0589159504
3844.49261	0.0587271973
3843.06290	0.0584948994
3841.63319	0.0583008230
3840.20348	0.0582279414
3838.77377	0.0583190322
3837.34406	0.0585361309
3835.91435	0.0587816387
3834.48464	0.0589705035
3833.05493	0.0590770803
3831.62521	0.0591201745
3830.19550	0.0591255426
3828.76579	0.0591042787
3827.33608	0.0590555482
3825.90637	0.0589806437
3824.47666	0.0588892661
3823.04695	0.0587990955
3821.61724	0.0587344281
3820.18753	0.0587284714
3818.75782	0.0588140041
3817.32811	0.0589956194
3815.89839	0.0592277981
3814.46868	0.0594312809
3813.03897	0.0595388934
3811.60926	0.0595265999
3810.17955	0.0594135635
3808.74984	0.0592452139
3807.32013	0.0590732247
3805.89042	0.0589383021
3804.46071	0.0588643663
3803.03100	0.0588648394
3801.60129	0.0589533634
3800.17157	0.0591371134
3798.74186	0.0594011545
3797.31215	0.0597048588
3795.88244	0.0599983744
3794.45273	0.0602396838
3793.02302	0.0604052357
3791.59331	0.0604908019
3790.16360	0.0605100542
3788.73389	0.0604899973
3787.30418	0.0604614355
3785.87447	0.0604475997
3784.44475	0.0604567938
3783.01504	0.0604859516
3781.58533	0.0605304949
3780.15562	0.0605892427
3778.72591	0.0606551990
3777.29620	0.0607105047
3775.86649	0.0607326850
3774.43678	0.0607136935
3773.00707	0.0606714189
3771.57736	0.0606429651
3770.14765	0.0606644563
3768.71794	0.0607434921
3767.28822	0.0608488396
3765.85851	0.0609308295
3764.42880	0.0609541796
3762.99909	0.0609151907
3761.56938	0.0608383268
3760.13967	0.0607598983
3758.70996	0.0607006215
3757.28025	0.0606473088
3755.85054	0.0605631433
3754.42083	0.0604260303
3752.99112	0.0602602959
3751.56140	0.0601361208
3750.13169	0.0601254478
3748.70198	0.0602534525
3747.27227	0.0605082400
3745.84256	0.0608707853
3744.41285	0.0613011234
3742.98314	0.0617124289
3741.55343	0.0620053634
3740.12372	0.0621312074
3738.69401	0.0621132255
3737.26430	0.0620299987
3735.83458	0.0619787611
3734.40487	0.0620216392
3732.97516	0.0621454529
3731.54545	0.0622952096
3730.11574	0.0624337792
3728.68603	0.0625580400
3727.25632	0.0626854822
3725.82661	0.0628384128
3724.39690	0.0630307570
3722.96719	0.0632532761
3721.53748	0.0634683892
3720.10776	0.0636293292
3718.67805	0.0637040213
3717.24834	0.0636900887
3715.81863	0.0636180937
3714.38892	0.0635568127
3712.95921	0.0636074543
3711.52950	0.0638505369
3710.09979	0.0642608479
3708.67008	0.0647074804
3707.24037	0.0650740340
3705.81066	0.0653436631
3704.38094	0.0655775219
3702.95123	0.0658466220
3701.52152	0.0661771819
3700.09181	0.0665349588
3698.66210	0.0668588504
3697.23239	0.0671062991
3695.80268	0.0672758222
3694.37297	0.0674079806
3692.94326	0.0675867200
3691.51355	0.0679224730
3690.08384	0.0684828311
3688.65412	0.0692037717
3687.22441	0.0699122548
3685.79470	0.0704676062
3684.36499	0.0708367974
3682.93528	0.0710585415
3681.50557	0.0711968243
3680.07586	0.0713329837
3678.64615	0.0715707317
3677.21644	0.0720128417
3675.78673	0.0726931542
3674.35702	0.0735497102
3672.92730	0.0744999498
3671.49759	0.0755284131
3670.06788	0.0766555667
3668.63817	0.0778513402
3667.20846	0.0790299401
3665.77875	0.0801194161
3664.34904	0.0811101422
3662.91933	0.0820387527
3661.48962	0.0829503983
3660.05991	0.0838779956
3658.63020	0.0848374441
3657.20048	0.0858208090
3655.77077	0.0867967606
3654.34106	0.0877417102
3652.91135	0.0886999667
3651.48164	0.0898188949
3650.05193	0.0912759677
3648.62222	0.0930814445
3647.19251	0.0949857086
3645.76280	0.0967160314
3644.33309	0.0982113630
3642.90338	0.0995715559
3641.47366	0.1009090766
3640.04395	0.1022753939
3638.61424	0.1036562473
3637.18453	0.1049981192
3635.75482	0.1062478274
3634.32511	0.1073999330
3632.89540	0.1085465327
3631.46569	0.1098848209
3630.03598	0.1116096154
3628.60627	0.1136946604
3627.17656	0.1158257574
3625.74684	0.1176810637
3624.31713	0.1191890016
3622.88742	0.1204848960
3621.45771	0.1217535660
3620.02800	0.1231199354
3618.59829	0.1246051416
3617.16858	0.1261460036
3615.73887	0.1276686788
3614.30916	0.1291495711
3612.87945	0.1306260973
3611.44974	0.1321653128
3610.02003	0.1338080317
3608.59031	0.1355222017
3607.16060	0.1372153908
3605.73089	0.1388057619
3604.30118	0.1402747184
3602.87147	0.1416565180
3601.44176	0.1429988146
3600.01205	0.1443425119
3598.58234	0.1457210630
3597.15263	0.1471531391
3595.72292	0.1486192495
3594.29321	0.1500651091
3592.86349	0.1514539570
3591.43378	0.1528219134
3590.00407	0.1542707384
3588.57436	0.1558827907
3587.14465	0.1576264203
3585.71494	0.1593606323
3584.28523	0.1609570384
3582.85552	0.1623923182
3581.42581	0.1637281179
3579.99610	0.1650428325
3578.56639	0.1663896292
3577.13667	0.1677808315
3575.70696	0.1691872627
3574.27725	0.1705565751
3572.84754	0.1718561947
3571.41783	0.1731133163
3569.98812	0.1744213998
3568.55841	0.1758859307
3567.12870	0.1775328666
3565.69899	0.1792664528
3564.26928	0.1809449345
3562.83957	0.1824928969
3561.40985	0.1839224845
3559.98014	0.1852831244
3558.55043	0.1866203249
3557.12072	0.1879630834
3555.69101	0.1893251836
3554.26130	0.1907066256
3552.83159	0.1921010166
3551.40188	0.1935115755
3549.97217	0.1949557662
3548.54246	0.1964512169
3547.11275	0.1979900450
3545.68303	0.1995311826
3544.25332	0.2010215223
3542.82361	0.2024298012
3541.39390	0.2037629932
3539.96419	0.2050559521
3538.53448	0.2063483149
3537.10477	0.2076623440
3535.67506	0.2089896798
3534.24535	0.2103032023
3532.81564	0.2115890086
3531.38593	0.2128684968
3529.95621	0.2141855955
3528.52650	0.2155657113
3527.09679	0.2169905454
3525.66708	0.2184129655
3524.23737	0.2197986245
3522.80766	0.2211418897
3521.37795	0.2224500030
3519.94824	0.2237240672
3518.51853	0.2249626517
3517.08882	0.2261759639
3515.65911	0.2273851633
3514.22939	0.2286079377
3512.79968	0.2298492491
3511.36997	0.2311024517
3509.94026	0.2323558182
3508.51055	0.2335915864
3507.08084	0.2347918600
3505.65113	0.2359522283
3504.22142	0.2370902747
3502.79171	0.2382325232
3501.36200	0.2393911183
3499.93229	0.2405558378
3498.50257	0.2417127937
3497.07286	0.2428585440
3495.64315	0.2439918816
3494.21344	0.2450970113
3492.78373	0.2461485118
3491.35402	0.2471384406
3489.92431	0.2480886132
3488.49460	0.2490318567
3487.06489	0.2499833256
3485.63518	0.2509354949
3484.20547	0.2518800795
3482.77575	0.2528189421
3481.34604	0.2537548840
3479.91633	0.2546781003
3478.48662	0.2555754185
3477.05691	0.2564484477
3475.62720	0.2573162317
3474.19749	0.2581951320
3472.76778	0.2590845823
3471.33807	0.2599732876
3469.90836	0.2608530521
3468.47865	0.2617217898
3467.04893	0.2625755668
3465.61922	0.2634091675
3464.18951	0.2642251849
3462.75980	0.2650354505
3461.33009	0.2658469081
3459.90038	0.2666497231
3458.47067	0.2674238086
3457.04096	0.2681543827
3455.61125	0.2688365877
3454.18154	0.2694658339
3452.75183	0.2700377107
3451.32212	0.2705610693
3449.89240	0.2710684240
3448.46269	0.2716009617
3447.03298	0.2721770108
3445.60327	0.2727810442
3444.17356	0.2733801305
3442.74385	0.2739504278
3441.31414	0.2744835913
3439.88443	0.2749790251
3438.45472	0.2754395604
3437.02501	0.2758759260
3435.59530	0.2763069868
3434.16558	0.2767469883
3432.73587	0.2771969140
3431.30616	0.2776498497
3429.87645	0.2781008780
3428.44674	0.2785469294
3427.01703	0.2789778709
3425.58732	0.2793768048
3424.15761	0.2797348201
3422.72790	0.2800641358
3421.29819	0.2803897858
3419.86848	0.2807278037
3418.43876	0.2810742855
3417.00905	0.2814142704
3415.57934	0.2817367911
3414.14963	0.2820380330
3412.71992	0.2823145092
3411.29021	0.2825613320
3409.86050	0.2827762663
3408.43079	0.2829605639
3407.00108	0.2831181288
3405.57137	0.2832514942
3404.14166	0.2833686471
3402.71194	0.2834837437
3401.28223	0.2836123407
3399.85252	0.2837629020
3398.42281	0.2839320004
3396.99310	0.2841088474
3395.56339	0.2842770815
3394.13368	0.2844142914
3392.70397	0.2844966054
3391.27426	0.2845115960
3389.84455	0.2844734490
3388.41484	0.2844183147
3386.98512	0.2843868434
3385.55541	0.2844004333
3384.12570	0.2844552398
3382.69599	0.2845278978
3381.26628	0.2845892310
3379.83657	0.2846167386
3378.40686	0.2846083045
3376.97715	0.2845853269
3375.54744	0.2845816314
3374.11773	0.2846212089
3372.68802	0.2846993506
3371.25830	0.2847869992
3369.82859	0.2848527431
3368.39888	0.2848806381
3366.96917	0.2848732471
3365.53946	0.2848420143
3364.10975	0.2847978473
3362.68004	0.2847462296
3361.25033	0.2846872807
3359.82062	0.2846200764
3358.39091	0.2845484018
3356.96120	0.2844840884
3355.53148	0.2844416499
3354.10177	0.2844245434
3352.67206	0.2844181657
3351.24235	0.2843995392
3349.81264	0.2843573391
3348.38293	0.2843042910
3346.95322	0.2842716575
3345.52351	0.2842893302
3344.09380	0.2843669951
3342.66409	0.2844840586
3341.23438	0.2845940888
3339.80466	0.2846440077
3338.37495	0.2846026719
3336.94524	0.2844813466
3335.51553	0.2843306363
3334.08582	0.2842107415
3332.65611	0.2841608822
3331.22640	0.2841878235
3329.79669	0.2842758894
3328.36698	0.2843981385
3326.93727	0.2845220268
3325.50756	0.2846142054
3324.07784	0.2846571803
3322.64813	0.2846660018
3321.21842	0.2846844792
3319.78871	0.2847575843
3318.35900	0.2849017680
3316.92929	0.2851018012
3315.49958	0.2853358984
3314.06987	0.2856006920
3312.64016	0.2859119177
3311.21045	0.2862809896
3309.78074	0.2866888642
3308.35102	0.2870841324
3306.92131	0.2874025404
3305.49160	0.2875998318
3304.06189	0.2876724601
3302.63218	0.2876596153
3301.20247	0.2876243293
3299.77276	0.2876207530
3298.34305	0.2876674533
3296.91334	0.2877367139
3295.48363	0.2877701819
3294.05392	0.2877064347
3292.62421	0.2875099778
3291.19449	0.2871859670
3289.76478	0.2867761850
3288.33507	0.2863361835
3286.90536	0.2859082222
3285.47565	0.2855054438
3284.04594	0.2851161957
3282.61623	0.2847182453
3281.18652	0.2842919827
3279.75681	0.2838220298
3278.32710	0.2832945883
3276.89739	0.2826968133
3275.46767	0.2820192575
3274.03796	0.2812559605
3272.60825	0.2804006636
3271.17854	0.2794454694
3269.74883	0.2783878744
3268.31912	0.2772408426
3266.88941	0.2760373056
3265.45970	0.2748227417
3264.02999	0.2736397684
3262.60028	0.2725153267
3261.17057	0.2714533806
3259.74085	0.2704339623
3258.31114	0.2694202363
3256.88143	0.2683756649
3255.45172	0.2672850192
3254.02201	0.2661666572
3252.59230	0.2650638521
3251.16259	0.2640155852
3249.73288	0.2630327046
3248.30317	0.2620939016
3246.87346	0.2611664534
3245.44375	0.2602318227
3244.01403	0.2592976093
3242.58432	0.2583883405
3241.15461	0.2575255930
3239.72490	0.2567143738
3238.29519	0.2559411228
3236.86548	0.2551828027
3235.43577	0.2544174790
3234.00606	0.2536314428
3232.57635	0.2528233528
3231.14664	0.2520036995
3229.71693	0.2511913776
3228.28721	0.2504074872
3226.85750	0.2496671230
3225.42779	0.2489746362
3223.99808	0.2483237833
3222.56837	0.2477001399
3221.13866	0.2470853478
3219.70895	0.2464594692
3218.27924	0.2458053082
3216.84953	0.2451173067
3215.41982	0.2444051206
3213.99011	0.2436893880
3212.56039	0.2429893315
3211.13068	0.2423095256
3209.70097	0.2416390926
3208.27126	0.2409606874
3206.84155	0.2402630597
3205.41184	0.2395451367
3203.98213	0.2388127297
3202.55242	0.2380717993
3201.12271	0.2373249233
3199.69300	0.2365707755
3198.26329	0.2358062863
3196.83357	0.2350304425
3195.40386	0.2342474908
3193.97415	0.2334661633
3192.54444	0.2326919138
3191.11473	0.2319203615
3189.68502	0.2311395556
3188.25531	0.2303411961
3186.82560	0.2295311540
3185.39589	0.2287258804
3183.96618	0.2279356122
3182.53647	0.2271525860
3181.10675	0.2263549566
3179.67704	0.2255249172
3178.24733	0.2246630937
3176.81762	0.2237860858
3175.38791	0.2229138166
3173.95820	0.2220565975
3172.52849	0.2212143838
3171.09878	0.2203836888
3169.66907	0.2195627242
3168.23936	0.2187516242
3166.80965	0.2179481089
3165.37993	0.2171445489
3163.95022	0.2163293809
3162.52051	0.2154937685
3161.09080	0.2146406621
3159.66109	0.2137885094
3158.23138	0.2129636854
3156.80167	0.2121836245
3155.37196	0.2114432007
3153.94225	0.2107132524
3152.51254	0.2099566162
3151.08283	0.2091484517
3149.65311	0.2082899809
3148.22340	0.2074076086
3146.79369	0.2065403610
3145.36398	0.2057219893
3143.93427	0.2049658000
3142.50456	0.2042579204
3141.07485	0.2035655528
3139.64514	0.2028549463
3138.21543	0.2021100074
3136.78572	0.2013396323
3135.35601	0.2005679160
3133.92629	0.1998156160
3132.49658	0.1990874112
3131.06687	0.1983731836
3129.63716	0.1976644397
3128.20745	0.1969681978
3126.77774	0.1963071376
3125.34803	0.1957055926
3123.91832	0.1951692551
3122.48861	0.1946753114
3121.05890	0.1941801608
3119.62919	0.1936400831
3118.19948	0.1930324882
3116.76976	0.1923638880
3115.34005	0.1916646361
3113.91034	0.1909723878
3112.48063	0.1903143376
3111.05092	0.1896959096
3109.62121	0.1891038269
3108.19150	0.1885187626
3106.76179	0.1879302859
3105.33208	0.1873410940
3103.90237	0.1867608577
3102.47266	0.1861955076
3101.04294	0.1856453270
3099.61323	0.1851108372
3098.18352	0.1845998168
3096.75381	0.1841249913
3095.32410	0.1836933941
3093.89439	0.1832977533
3092.46468	0.1829177886
3091.03497	0.1825307757
3089.60526	0.1821220964
3088.17555	0.1816892624
3086.74584	0.1812390536
3085.31612	0.1807806045
3083.88641	0.1803172976
3082.45670	0.1798414886
3081.02699	0.1793339700
3079.59728	0.1787742823
3078.16757	0.1781556755
3076.73786	0.1774963737
3075.30815	0.1768362373
3073.87844	0.1762188524
3072.44873	0.1756684035
3071.01902	0.1751740277
3069.58930	0.1746952683
3068.15959	0.1741809547
3066.72988	0.1735955626
3065.30017	0.1729359627
3063.87046	0.1722295731
3062.44075	0.1715171039
3061.01104	0.1708319187
3059.58133	0.1701846719
3058.15162	0.1695652753
3056.72191	0.1689520627
3055.29220	0.1683254093
3053.86248	0.1676740795
3052.43277	0.1669991463
3051.00306	0.1663121730
3049.57335	0.1656322628
3048.14364	0.1649783254
3046.71393	0.1643566340
3045.28422	0.1637527645
3043.85451	0.1631346196
3042.42480	0.1624696851
3040.99509	0.1617479026
3039.56538	0.1609887928
3038.13566	0.1602291167
3036.70595	0.1594964564
3035.27624	0.1587926298
3033.84653	0.1580984890
3032.41682	0.1573962420
3030.98711	0.1566863209
3029.55740	0.1559873223
3028.12769	0.1553204507
3026.69798	0.1546962559
3025.26827	0.1541112065
3023.83856	0.1535550356
3022.40884	0.1530180871
3020.97913	0.1524937153
3019.54942	0.1519756466
3018.11971	0.1514562368
3016.69000	0.1509265602
3015.26029	0.1503797621
3013.83058	0.1498133093
3012.40087	0.1492312551
3010.97116	0.1486438215
3009.54145	0.1480649263
3008.11174	0.1475098580
3006.68202	0.1469929963
3005.25231	0.1465264559
3003.82260	0.1461182833
3002.39289	0.1457704008
3000.96318	0.1454783529
2999.53347	0.1452342123
2998.10376	0.1450298876
2996.67405	0.1448571682
2995.24434	0.1447068006
2993.81463	0.1445675343
2992.38492	0.1444323510
2990.95520	0.1443074346
2989.52549	0.1442174762
2988.09578	0.1441986412
2986.66607	0.1442804039
2985.23636	0.1444670558
2983.80665	0.1447318345
2982.37694	0.1450297087
2980.94723	0.1453208625
2979.51752	0.1455903649
2978.08781	0.1458494663
2976.65810	0.1461197585
2975.22838	0.1464130729
2973.79867	0.1467235684
2972.36896	0.1470365822
2970.93925	0.1473434120
2969.50954	0.1476466805
2968.07983	0.1479492635
2966.65012	0.1482374668
2965.22041	0.1484770179
2963.79070	0.1486237645
2962.36099	0.1486437172
2960.93128	0.1485233307
2959.50157	0.1482653618
2958.07185	0.1478790194
2956.64214	0.1473728567
2955.21243	0.1467591077
2953.78272	0.1460644305
2952.35301	0.1453345865
2950.92330	0.1446284503
2949.49359	0.1440018713
2948.06388	0.1434909701
2946.63417	0.1431051046
2945.20446	0.1428330094
2943.77475	0.1426559389
2942.34503	0.1425591707
2940.91532	0.1425324678
2939.48561	0.1425668299
2938.05590	0.1426496953
2936.62619	0.1427637786
2935.19648	0.1428890079
2933.76677	0.1430019438
2932.33706	0.1430760622
2930.90735	0.1430837363
2929.47764	0.1430042088
2928.04793	0.1428297311
2926.61821	0.1425655335
2925.18850	0.1422218978
2923.75879	0.1418031156
2922.32908	0.1413003504
2920.89937	0.1406943947
2919.46966	0.1399642825
2918.03995	0.1390986741
2916.61024	0.1381023079
2915.18053	0.1369965971
2913.75082	0.1358160526
2912.32111	0.1346027702
2910.89139	0.1334027350
2909.46168	0.1322589219
2908.03197	0.1312049478
2906.60226	0.1302571148
2905.17255	0.1294136494
2903.74284	0.1286605150
2902.31313	0.1279813796
2900.88342	0.1273638308
2899.45371	0.1267988831
2898.02400	0.1262748539
2896.59429	0.1257762164
2895.16457	0.1252869964
2893.73486	0.1247991100
2892.30515	0.1243187413
2890.87544	0.1238643155
2889.44573	0.1234600991
2888.01602	0.1231255755
2886.58631	0.1228691414
2885.15660	0.1226879060
2883.72689	0.1225741357
2882.29718	0.1225222722
2880.86747	0.1225295141
2879.43775	0.1225869060
2878.00804	0.1226658672
2876.57833	0.1227138340
2875.14862	0.1226648018
2873.71891	0.1224624515
2872.28920	0.1220831871
2870.85949	0.1215442345
2869.42978	0.1208952144
2868.00007	0.1202011704
2866.57036	0.1195248365
2865.14065	0.1189153045
2863.71093	0.1184014827
2862.28122	0.1179893389
2860.85151	0.1176628396
2859.42180	0.1173897311
2857.99209	0.1171336472
2856.56238	0.1168619171
2855.13267	0.1165471300
2853.70296	0.1161615998
2852.27325	0.1156715974
2850.84354	0.1150436029
2849.41383	0.1142621785
2847.98411	0.1133473068
2846.55440	0.1123588160
2845.12469	0.1113776863
2843.69498	0.1104764491
2842.26527	0.1096921936
2840.83556	0.1090195701
2839.40585	0.1084243059
2837.97614	0.1078688130
2836.54643	0.1073338762
2835.11672	0.1068238616
2833.68701	0.1063559875
2832.25729	0.1059427857
2830.82758	0.1055811420
2829.39787	0.1052540690
2827.96816	0.1049426347
2826.53845	0.1046370640
2825.10874	0.1043401584
2823.67903	0.1040611863
2822.24932	0.1038073450
2820.81961	0.1035789251
2819.38990	0.1033695340
2817.96019	0.1031699032
2816.53047	0.1029716656
2815.10076	0.1027681455
2813.67105	0.1025534794
2812.24134	0.1023201421
2810.81163	0.1020601839
2809.38192	0.1017706320
2807.95221	0.1014592648
2806.52250	0.1011467502
2805.09279	0.1008597016
2803.66308	0.1006170884
2802.23337	0.1004187167
2800.80366	0.1002436802
2799.37394	0.1000622958
2797.94423	0.0998549536
2796.51452	0.0996230319
2795.08481	0.0993856639
2793.65510	0.0991616324
2792.22539	0.0989520550
2790.79568	0.0987375453
2789.36597	0.0984931290
2787.93626	0.0982078612
2786.50655	0.0978954062
2785.07684	0.0975865424
2783.64712	0.0973111987
2782.21741	0.0970841870
2780.78770	0.0969008505
2779.35799	0.0967418104
2777.92828	0.0965825394
2776.49857	0.0964014530
2775.06886	0.0961879715
2773.63915	0.0959451124
2772.20944	0.0956872255
2770.77973	0.0954317525
2769.35002	0.0951899290
2767.92030	0.0949639305
2766.49059	0.0947489962
2765.06088	0.0945384800
2763.63117	0.0943272263
2762.20146	0.0941124782
2760.77175	0.0938953981
2759.34204	0.0936821103
2757.91233	0.0934829339
2756.48262	0.0933091566
2755.05291	0.0931657702
2753.62320	0.0930466428
2752.19348	0.0929353386
2750.76377	0.0928091258
2749.33406	0.0926480219
2747.90435	0.0924418196
2746.47464	0.0921945199
2745.04493	0.0919221267
2743.61522	0.0916454494
2742.18551	0.0913825631
2740.75580	0.0911424160
2739.32609	0.0909244791
2737.89638	0.0907216445
2736.46666	0.0905269757
2735.03695	0.0903376490
2733.60724	0.0901561156
2732.17753	0.0899866894
2730.74782	0.0898300707
2729.31811	0.0896787271
2727.88840	0.0895184651
2726.45869	0.0893340260
2725.02898	0.0891168043
2723.59927	0.0888691694
2722.16956	0.0886035785
2720.73984	0.0883374810
2719.31013	0.0880861357
2717.88042	0.0878573656
2716.45071	0.0876510814
2715.02100	0.0874614865
2713.59129	0.0872816220
2712.16158	0.0871057585
2710.73187	0.0869309828
2709.30216	0.0867560133
2707.87245	0.0865799859
2706.44274	0.0864020064
2705.01302	0.0862205923
2703.58331	0.0860358775
2702.15360	0.0858515650
2700.72389	0.0856750458
2699.29418	0.0855141133
2697.86447	0.0853700563
2696.43476	0.0852361023
2695.00505	0.0850990713
2693.57534	0.0849484503
2692.14563	0.0847826228
2690.71592	0.0846095309
2689.28620	0.0844412521
2687.85649	0.0842869356
2686.42678	0.0841502920
2684.99707	0.0840286836
2683.56736	0.0839159265
2682.13765	0.0838043019
2680.70794	0.0836876556
2679.27823	0.0835621879
2677.84852	0.0834272504
2676.41881	0.0832818225
2674.98910	0.0831240863
2673.55938	0.0829515904
2672.12967	0.0827643499
2670.69996	0.0825646296
2669.27025	0.0823567733
2667.84054	0.0821456462
2666.41083	0.0819364861
2664.98112	0.0817366540
2663.55141	0.0815561190
2662.12170	0.0814045072
2660.69199	0.0812871233
2659.26228	0.0812014788
2657.83256	0.0811369792
2656.40285	0.0810767263
2654.97314	0.0810025111
2653.54343	0.0808998644
2652.11372	0.0807631388
2650.68401	0.0805985555
2649.25430	0.0804239735
2647.82459	0.0802618861
2646.39488	0.0801308379
2644.96517	0.0800372958
2643.53546	0.0799736232
2642.10575	0.0799230859
2640.67603	0.0798682943
2639.24632	0.0797992349
2637.81661	0.0797145367
2636.38690	0.0796185955
2634.95719	0.0795159638
2633.52748	0.0794087946
2632.09777	0.0792980045
2630.66806	0.0791856349
2629.23835	0.0790757462
2627.80864	0.0789718181
2626.37893	0.0788743049
2624.94921	0.0787785202
2623.51950	0.0786784515
2622.08979	0.0785719156
2620.66008	0.0784630179
2619.23037	0.0783609375
2617.80066	0.0782731399
2616.37095	0.0781996846
2614.94124	0.0781328678
2613.51153	0.0780627131
2612.08182	0.0779850185
2610.65211	0.0779036134
2609.22239	0.0778275877
2607.79268	0.0777633339
2606.36297	0.0777093694
2604.93326	0.0776568353
2603.50355	0.0775951520
2602.07384	0.0775184631
2600.64413	0.0774290413
2599.21442	0.0773354024
2597.78471	0.0772474110
2596.35500	0.0771706328
2594.92529	0.0771056414
2593.49557	0.0770494789
2592.06586	0.0770000517
2590.63615	0.0769584179
2589.20644	0.0769265890
2587.77673	0.0769052655
2586.34702	0.0768917352
2584.91731	0.0768801495
2583.48760	0.0768639892
2582.05789	0.0768383443
2580.62818	0.0768015459
2579.19847	0.0767546818
2577.76875	0.0767020509
2576.33904	0.0766483098
2574.90933	0.0765973255
2573.47962	0.0765507370
2572.04991	0.0765084997
2570.62020	0.0764711127
2569.19049	0.0764419138
2567.76078	0.0764259845
2566.33107	0.0764266923
2564.90136	0.0764419436
2563.47165	0.0764629021
2562.04193	0.0764783397
2560.61222	0.0764805302
2559.18251	0.0764697567
2557.75280	0.0764539838
2556.32309	0.0764426813
2554.89338	0.0764409825
2553.46367	0.0764477178
2552.03396	0.0764570981
2550.60425	0.0764630586
2549.17454	0.0764634907
2547.74483	0.0764599666
2546.31511	0.0764567256
2544.88540	0.0764577761
2543.45569	0.0764661133
2542.02598	0.0764833987
2540.59627	0.0765110925
2539.16656	0.0765502378
2537.73685	0.0766003877
2536.30714	0.0766577348
2534.87743	0.0767156407
2533.44772	0.0767665431
2532.01801	0.0768063068
2530.58829	0.0768359005
2529.15858	0.0768615156
2527.72887	0.0768921077
2526.29916	0.0769336373
2524.86945	0.0769866034
2523.43974	0.0770447478
2522.01003	0.0770975128
2520.58032	0.0771357864
2519.15061	0.0771559179
2517.72090	0.0771616027
2516.29119	0.0771616697
2514.86147	0.0771638900
2513.43176	0.0771738812
2512.00205	0.0771936104
2510.57234	0.0772228912
2509.14263	0.0772608668
2507.71292	0.0773052797
2506.28321	0.0773536265
2504.85350	0.0774035528
2503.42379	0.0774525255
2501.99408	0.0774980113
2500.56437	0.0775374919
2499.13465	0.0775703266
2497.70494	0.0775993615
2496.27523	0.0776308402
2494.84552	0.0776708648
2493.41581	0.0777206421
2491.98610	0.0777755007
2490.55639	0.0778265670
2489.12668	0.0778667256
2487.69697	0.0778941959
2486.26726	0.0779139251
2484.83755	0.0779350251
2483.40784	0.0779666156
2481.97812	0.0780128986
2480.54841	0.0780705512
2479.11870	0.0781305134
2477.68899	0.0781840906
2476.25928	0.0782286301
2474.82957	0.0782678425
2473.39986	0.0783061236
2471.97015	0.0783419311
2470.54044	0.0783677623
2469.11073	0.0783773735
2467.68102	0.0783738717
2466.25130	0.0783699900
2464.82159	0.0783798546
2463.39188	0.0784093067
2461.96217	0.0784520060
2460.53246	0.0784958005
2459.10275	0.0785311908
2457.67304	0.0785574615
2456.24333	0.0785801038
2454.81362	0.0786048248
2453.38391	0.0786319748
2451.95420	0.0786560774
2450.52448	0.0786693916
2449.09477	0.0786679015
2447.66506	0.0786547437
2446.23535	0.0786389858
2444.80564	0.0786302686
2443.37593	0.0786341727
2441.94622	0.0786496252
2440.51651	0.0786733627
2439.08680	0.0787040815
2437.65709	0.0787439793
2436.22738	0.0787942261
2434.79766	0.0788493156
2433.36795	0.0788980499
2431.93824	0.0789296255
2430.50853	0.0789418593
2429.07882	0.0789435357
2427.64911	0.0789479762
2426.21940	0.0789631233
2424.78969	0.0789864734
2423.35998	0.0790069327
2421.93027	0.0790121183
2420.50056	0.0789956972
2419.07084	0.0789592415
2417.64113	0.0789117143
2416.21142	0.0788656771
2414.78171	0.0788324028
2413.35200	0.0788160786
2411.92229	0.0788107663
2410.49258	0.0788030699
2409.06287	0.0787812546
2407.63316	0.0787438601
2406.20345	0.0787020326
2404.77374	0.0786715001
2403.34402	0.0786630586
2401.91431	0.0786750987
2400.48460	0.0786967874
2399.05489	0.0787145346
2397.62518	0.0787203684
2396.19547	0.0787136331
2394.76576	0.0787000135
2393.33605	0.0786860809
2391.90634	0.0786746293
2390.47663	0.0786619410
2389.04692	0.0786385164
2387.61720	0.0785942823
2386.18749	0.0785233378
2384.75778	0.0784252435
2383.32807	0.0783032402
2381.89836	0.0781589597
2380.46865	0.0779905617
2379.03894	0.0777935833
2377.60923	0.0775642619
2376.17952	0.0773019716
2374.74981	0.0770110562
2373.32010	0.0766992718
2371.89038	0.0763751492
2370.46067	0.0760449469
2369.03096	0.0757104680
2367.60125	0.0753717124
2366.17154	0.0750366151
2364.74183	0.0747324228
2363.31212	0.0745067075
2361.88241	0.0744109675
2360.45270	0.0744726583
2359.02299	0.0746831372
2357.59328	0.0750046745
2356.16356	0.0753804594
2354.73385	0.0757426992
2353.30414	0.0760261938
2351.87443	0.0761910602
2350.44472	0.0762298703
2349.01501	0.0761604235
2347.58530	0.0760149732
2346.15559	0.0758345202
2344.72588	0.0756634399
2343.29617	0.0755362660
2341.86646	0.0754605904
2340.43674	0.0754155666
2339.00703	0.0753745139
2337.57732	0.0753278360
2336.14761	0.0752854794
2334.71790	0.0752661750
2333.28819	0.0752836913
2331.85848	0.0753383040
2330.42877	0.0754153505
2328.99906	0.0754915103
2327.56935	0.0755468011
2326.13964	0.0755768716
2324.70993	0.0755951405
2323.28021	0.0756269619
2321.85050	0.0756950900
2320.42079	0.0758070201
2318.99108	0.0759495422
2317.56137	0.0760964528
2316.13166	0.0762219131
2314.70195	0.0763121918
2313.27224	0.0763702095
2311.84253	0.0764090046
2310.41282	0.0764406770
2308.98311	0.0764670372
2307.55339	0.0764783025
2306.12368	0.0764640421
2304.69397	0.0764243752
2303.26426	0.0763736963
2301.83455	0.0763332695
2300.40484	0.0763170049
2298.97513	0.0763226524
2297.54542	0.0763349086
2296.11571	0.0763381124
2294.68600	0.0763271004
2293.25629	0.0763073489
2291.82657	0.0762870163
2290.39686	0.0762691498
2288.96715	0.0762515292
2287.53744	0.0762316585
2286.10773	0.0762097239
2284.67802	0.0761873573
2283.24831	0.0761639401
2281.81860	0.0761360899
2280.38889	0.0761004910
2278.95918	0.0760566965
2277.52947	0.0760074779
2276.09975	0.0759563223
2274.67004	0.0759053901
2273.24033	0.0758549273
2271.81062	0.0758037269
2270.38091	0.0757490471
2268.95120	0.0756874159
2267.52149	0.0756171346
2266.09178	0.0755409524
2264.66207	0.0754666254
2263.23236	0.0754045099
2261.80265	0.0753619522
2260.37293	0.0753403977
2258.94322	0.0753338411
2257.51351	0.0753321797
2256.08380	0.0753268525
2254.65409	0.0753133073
2253.22438	0.0752925575
2251.79467	0.0752683282
2250.36496	0.0752446279
2248.93525	0.0752249882
2247.50554	0.0752116293
2246.07583	0.0752050728
2244.64611	0.0752028823
2243.21640	0.0751989782
2241.78669	0.0751858354
2240.35698	0.0751577020
2238.92727	0.0751123726
2237.49756	0.0750525817
2236.06785	0.0749845877
2234.63814	0.0749176517
2233.20843	0.0748618841
2231.77872	0.0748237520
2230.34901	0.0748027787
2228.91929	0.0747898594
2227.48958	0.0747726113
2226.05987	0.0747425407
2224.63016	0.0747003853
2223.20045	0.0746558085
2221.77074	0.0746213794
2220.34103	0.0746044442
2218.91132	0.0746024176
2217.48161	0.0746039823
2216.05190	0.0745953768
2214.62219	0.0745674670
2213.19247	0.0745192766
2211.76276	0.0744553283
2210.33305	0.0743820220
2208.90334	0.0743052885
2207.47363	0.0742309615
2206.04392	0.0741648450
2204.61421	0.0741100982
2203.18450	0.0740651190
2201.75479	0.0740242600
2200.32508	0.0739822090
2198.89537	0.0739372149
2197.46565	0.0738908127
2196.03594	0.0738439560
2194.60623	0.0737943724
2193.17652	0.0737369433
2191.74681	0.0736679882
2190.31710	0.0735882521
2188.88739	0.0735046044
2187.45768	0.0734273493
2186.02797	0.0733657703
2184.59826	0.0733223706
2183.16855	0.0732904077
2181.73883	0.0732570365
2180.30912	0.0732110143
2178.87941	0.0731502622
2177.44970	0.0730816126
2176.01999	0.0730159506
2174.59028	0.0729608908
2173.16057	0.0729163662
2171.73086	0.0728760138
2170.30115	0.0728318393
2168.87144	0.0727798641
2167.44173	0.0727225617
2166.01202	0.0726661012
2164.58230	0.0726138130
2163.15259	0.0725620091
2161.72288	0.0725025162
2160.29317	0.0724308193
2158.86346	0.0723511502
2157.43375	0.0722745284
2156.00404	0.0722088069
2154.57433	0.0721529573
2153.14462	0.0720984340
2151.71491	0.0720377788
2150.28520	0.0719704628
2148.85548	0.0719025880
2147.42577	0.0718417689
2145.99606	0.0717915595
2144.56635	0.0717493892
2143.13664	0.0717081055
2141.70693	0.0716598332
2140.27722	0.0715998784
2138.84751	0.0715297982
2137.41780	0.0714557320
2135.98809	0.0713840276
2134.55838	0.0713169649
2133.12866	0.0712524503
2131.69895	0.0711877942
2130.26924	0.0711238459
2128.83953	0.0710646659
2127.40982	0.0710136965
2125.98011	0.0709699839
2124.55040	0.0709282830
2123.12069	0.0708808675
2121.69098	0.0708222315
2120.26127	0.0707508773
2118.83156	0.0706702694
2117.40184	0.0705871210
2115.97213	0.0705070943
2114.54242	0.0704317391
2113.11271	0.0703584999
2111.68300	0.0702839345
2110.25329	0.0702087358
2108.82358	0.0701383650
2107.39387	0.0700798035
2105.96416	0.0700353906
2104.53445	0.0700003281
2103.10474	0.0699642301
2101.67502	0.0699173063
2100.24531	0.0698554590
2098.81560	0.0697826520
2097.38589	0.0697079971
2095.95618	0.0696417764
2094.52647	0.0695893019
2093.09676	0.0695494413
2091.66705	0.0695146248
2090.23734	0.0694755241
2088.80763	0.0694256499
2087.37792	0.0693629012
2085.94820	0.0692881718
2084.51849	0.0692037120
2083.08878	0.0691121891
2081.65907	0.0690183863
2080.22936	0.0689279959
2078.79965	0.0688462704
2077.36994	0.0687750578
2075.94023	0.0687118024
2074.51052	0.0686524287
2073.08081	0.0685936436
2071.65110	0.0685330778
2070.22138	0.0684686750
2068.79167	0.0683973059
2067.36196	0.0683163181
2065.93225	0.0682260469
2064.50254	0.0681300461
2063.07283	0.0680338144
2061.64312	0.0679418743
2060.21341	0.0678559765
2058.78370	0.0677759126
2057.35399	0.0677013323
2055.92428	0.0676334202
2054.49456	0.0675744414
2053.06485	0.0675251707
2051.63514	0.0674834475
2050.20543	0.0674434379
2048.77572	0.0673975497
2047.34601	0.0673398077
2045.91630	0.0672684163
2044.48659	0.0671865195
2043.05688	0.0670999885
2041.62717	0.0670137107
2040.19746	0.0669275448
2038.76774	0.0668370500
2037.33803	0.0667383000
2035.90832	0.0666332692
2034.47861	0.0665309727
2033.04890	0.0664423406
2031.61919	0.0663722456
2030.18948	0.0663161501
2028.75977	0.0662643686
2027.33006	0.0662092566
2025.90035	0.0661490858
2024.47064	0.0660867468
2023.04092	0.0660243630
2021.61121	0.0659610480
2020.18150	0.0658940449
2018.75179	0.0658216849
2017.32208	0.0657452419
2015.89237	0.0656684488
2014.46266	0.0655961856
2013.03295	0.0655319169
2011.60324	0.0654762909
2010.17353	0.0654265955
2008.74382	0.0653780252
2007.31411	0.0653251037
2005.88439	0.0652646571
2004.45468	0.0651980266
2003.02497	0.0651319474
2001.59526	0.0650756285
2000.16555	0.0650348812
1998.73584	0.0650068894
1997.30613	0.0649793223
1995.87642	0.0649386495
1994.44671	0.0648794919
1993.01700	0.0648102462
1991.58729	0.0647481009
1990.15757	0.0647074208
1988.72786	0.0646908954
1987.29815	0.0646891519
1985.86844	0.0646883994
1984.43873	0.0646788180
1983.00902	0.0646573678
1981.57931	0.0646261871
1980.14960	0.0645883083
1978.71989	0.0645452067
1977.29018	0.0644970611
1975.86047	0.0644469187
1974.43075	0.0644019693
1973.00104	0.0643711016
1971.57133	0.0643587932
1970.14162	0.0643611401
1968.71191	0.0643684641
1967.28220	0.0643710718
1965.85249	0.0643644705
1964.42278	0.0643498525
1962.99307	0.0643303990
1961.56336	0.0643092319
1960.13365	0.0642884597
1958.70393	0.0642706007
1957.27422	0.0642590150
1955.84451	0.0642565861
1954.41480	0.0642639995
1952.98509	0.0642765164
1951.55538	0.0642834529
1950.12567	0.0642721057
1948.69596	0.0642339289
1947.26625	0.0641709939
1945.83654	0.0640976056
1944.40683	0.0640360713
1942.97711	0.0640081465
1941.54740	0.0640243739
1940.11769	0.0640772581
1938.68798	0.0641440526
1937.25827	0.0641975850
1935.82856	0.0642216504
1934.39885	0.0642176047
1932.96914	0.0642005280
1931.53943	0.0641858801
1930.10972	0.0641779900
1928.68001	0.0641697943
1927.25029	0.0641524792
1925.82058	0.0641242489
1924.39087	0.0640908554
1922.96116	0.0640622005
1921.53145	0.0640472025
1920.10174	0.0640514642
1918.67203	0.0640736595
1917.24232	0.0641042367
1915.81261	0.0641290769
1914.38290	0.0641397312
1912.95319	0.0641402081
1911.52347	0.0641442314
1910.09376	0.0641664639
1908.66405	0.0642121062
1907.23434	0.0642737225
1905.80463	0.0643358603
1904.37492	0.0643833876
1902.94521	0.0644088462
1901.51550	0.0644152388
1900.08579	0.0644141585
1898.65608	0.0644177645
1897.22637	0.0644312724
1895.79665	0.0644506663
1894.36694	0.0644674227
1892.93723	0.0644762218
1891.50752	0.0644782931
1890.07781	0.0644807592
1888.64810	0.0644927397
1887.21839	0.0645218417
1885.78868	0.0645703152
1884.35897	0.0646335408
1882.92926	0.0647012889
1881.49955	0.0647637844
1880.06983	0.0648162216
1878.64012	0.0648581833
1877.21041	0.0648892000
1875.78070	0.0649059117
1874.35099	0.0649043769
1872.92128	0.0648851693
1871.49157	0.0648565888
1870.06186	0.0648349449
1868.63215	0.0648396388
1867.20244	0.0648829788
1865.77273	0.0649618804
1864.34301	0.0650598705
1862.91330	0.0651597083
1861.48359	0.0652534068
1860.05388	0.0653444752
1858.62417	0.0654401705
1857.19446	0.0655406415
1855.76475	0.0656367093
1854.33504	0.0657165051
1852.90533	0.0657733977
1851.47562	0.0658061728
1850.04591	0.0658157170
1848.61619	0.0658067092
1847.18648	0.0657940283
1845.75677	0.0658027381
1844.32706	0.0658534318
1842.89735	0.0659432411
1841.46764	0.0660480186
1840.03793	0.0661442876
1838.60822	0.0662221611
1837.17851	0.0662801713
1835.74880	0.0663177744
1834.31909	0.0663356930
1832.88938	0.0663430169
1831.45966	0.0663586408
1830.02995	0.0664022863
1828.60024	0.0664828271
1827.17053	0.0665966943
1825.74082	0.0667356774
1824.31111	0.0668923706
1822.88140	0.0670596585
1821.45169	0.0672282204
1820.02198	0.0673878416
1818.59227	0.0675278082
1817.16256	0.0676374435
1815.73284	0.0677103773
1814.30313	0.0677533671
1812.87342	0.0677918568
1811.44371	0.0678582788
1810.01400	0.0679684505
1808.58429	0.0681084841
1807.15458	0.0682477951
1805.72487	0.0683657378
1804.29516	0.0684641302
1802.86545	0.0685590282
1801.43574	0.0686658323
1800.00602	0.0687890723
1798.57631	0.0689235404
1797.14660	0.0690620542
1795.71689	0.0692043155
1794.28718	0.0693602636
1792.85747	0.0695442706
1791.42776	0.0697587579
1789.99805	0.0699837208
1788.56834	0.0701909959
1787.13863	0.0703693032
1785.70892	0.0705310628
1784.27920	0.0706979930
1782.84949	0.0708797947
1781.41978	0.0710659474
1779.99007	0.0712377504
1778.56036	0.0713859499
1777.13065	0.0715155452
1775.70094	0.0716415495
1774.27123	0.0717887208
1772.84152	0.0719903857
1771.41181	0.0722679272
1769.98210	0.0726025477
1768.55238	0.0729438290
1767.12267	0.0732553229
1765.69296	0.0735409111
1764.26325	0.0738332793
1762.83354	0.0741646886
1761.40383	0.0745475218
1759.97412	0.0749740079
1758.54441	0.0754280686
1757.11470	0.0758932754
1755.68499	0.0763551816
1754.25528	0.0768108740
1752.82556	0.0772824809
1751.39585	0.0778147653
1749.96614	0.0784401298
1748.53643	0.0791395754
1747.10672	0.0798553228
1745.67701	0.0805466399
1744.24730	0.0812128112
1742.81759	0.0818668753
1741.38788	0.0825058073
1739.95817	0.0831174701
1738.52846	0.0837121084
1737.09874	0.0843405873
1735.66903	0.0850730911
1734.23932	0.0859500244
1732.80961	0.0869427770
1731.37990	0.0879786313
1729.95019	0.0890102535
1728.52048	0.0900407359
1727.09077	0.0910957977
1725.66106	0.0921902657
1724.23135	0.0933177620
1722.80164	0.0944681391
1721.37192	0.0956664160
1719.94221	0.0970085487
1718.51250	0.0986392274
1717.08279	0.1006141230
1715.65308	0.1027544066
1714.22337	0.1047629714
1712.79366	0.1064940020
1711.36395	0.1080050841
1709.93424	0.1094315499
1708.50453	0.1108892038
1707.07482	0.1124499589
1705.64510	0.1141678616
1704.21539	0.1161258891
1702.78568	0.1184672788
1701.35597	0.1213732809
1699.92626	0.1249514744
1698.49655	0.1290636808
1697.06684	0.1333015561
1695.63713	0.1372449696
1694.20742	0.1407113671
1692.77771	0.1437392235
1691.34800	0.1464612782
1689.91828	0.1490455419
1688.48857	0.1517153233
1687.05886	0.1547686756
1685.62915	0.1584704369
1684.19944	0.1627436429
1682.76973	0.1670389622
1681.34002	0.1708172262
1679.91031	0.1740207076
1678.48060	0.1769386232
1677.05089	0.1798810959
1675.62118	0.1830144674
1674.19147	0.1863627285
1672.76175	0.1898988038
1671.33204	0.1936030537
1669.90233	0.1974125355
1668.47262	0.2011766583
1667.04291	0.2047567815
1665.61320	0.2081563920
1664.18349	0.2114842683
1662.75378	0.2147705257
1661.32407	0.2178452909
1659.89436	0.2204343826
1658.46465	0.2223518640
1657.03493	0.2235456705
1655.60522	0.2239942700
1654.17551	0.2236372977
1652.74580	0.2224864662
1651.31609	0.2207603902
1649.88638	0.2187242657
1648.45667	0.2164770961
1647.02696	0.2140412778
1645.59725	0.2115439326
1644.16754	0.2091912329
1642.73783	0.2070816457
1641.30811	0.2051125318
1639.87840	0.2030410320
1638.44869	0.2005997598
1637.01898	0.1976573020
1635.58927	0.1943829358
1634.15956	0.1911475360
1632.72985	0.1881515533
1631.30014	0.1852745265
1629.87043	0.1822387725
1628.44072	0.1787773371
1627.01101	0.1747299433
1625.58129	0.1701266468
1624.15158	0.1652085781
1622.72187	0.1602798104
1621.29216	0.1554873139
1619.86245	0.1507545263
1618.43274	0.1459342241
1617.00303	0.1410472095
1615.57332	0.1363703310
1614.14361	0.1322243214
1612.71390	0.1286969632
1611.28419	0.1256322712
1609.85447	0.1228251010
1608.42476	0.1201834157
1606.99505	0.1177446097
1605.56534	0.1155821458
1604.13563	0.1137142032
1602.70592	0.1121019274
1601.27621	0.1107047871
1599.84650	0.1095085517
1598.41679	0.1085050851
1596.98708	0.1076701432
1595.55737	0.1069735587
1594.12765	0.1064033061
1592.69794	0.1059687212
1591.26823	0.1056830212
1589.83852	0.1055525243
1588.40881	0.1055819988
1586.97910	0.1057749912
1585.54939	0.1061173603
1584.11968	0.1065669134
1582.68997	0.1070737094
1581.26026	0.1076196358
1579.83055	0.1082376093
1578.40083	0.1089900285
1576.97112	0.1099100858
1575.54141	0.1109576523
1574.11170	0.1120555550
1572.68199	0.1131784767
1571.25228	0.1143777668
1569.82257	0.1157135963
1568.39286	0.1171657518
1566.96315	0.1186204553
1565.53344	0.1199632809
1564.10373	0.1211871654
1562.67401	0.1224325225
1561.24430	0.1239769831
1559.81459	0.1261186004
1558.38488	0.1288274974
1556.95517	0.1315489113
1555.52546	0.1337426603
1554.09575	0.1353392899
1552.66604	0.1365029514
1551.23633	0.1373433322
1549.80662	0.1378610581
1548.37691	0.1380099207
1546.94719	0.1377569586
1545.51748	0.1370837241
1544.08777	0.1359453499
1542.65806	0.1342875212
1541.22835	0.1322087944
1539.79864	0.1300678253
1538.36893	0.1281961203
1536.93922	0.1265996844
1535.50951	0.1250875145
1534.07980	0.1235045046
1532.65009	0.1218180135
1531.22037	0.1200808063
1529.79066	0.1183446720
1528.36095	0.1166063473
1526.93124	0.1148233190
1525.50153	0.1129656807
1524.07182	0.1110546142
1522.64211	0.1091657653
1521.21240	0.1073922142
1519.78269	0.1057855859
1518.35298	0.1043173820
1516.92327	0.1028958783
1515.49356	0.1014225110
1514.06384	0.0998313650
1512.63413	0.0980719626
1511.20442	0.0960579962
1509.77471	0.0936543941
1508.34500	0.0908179581
1506.91529	0.0878657326
1505.48558	0.0853840187
1504.05587	0.0836400390
1502.62616	0.0824232101
1501.19645	0.0814032257
1499.76674	0.0803691521
1498.33702	0.0792711601
1496.90731	0.0781804696
1495.47760	0.0771888793
1494.04789	0.0763163567
1492.61818	0.0755160600
1491.18847	0.0747475475
1489.75876	0.0740338415
1488.32905	0.0734535903
1486.89934	0.0730723664
1485.46963	0.0728852898
1484.03992	0.0728375912
1482.61020	0.0728769004
1481.18049	0.0729812831
1479.75078	0.0731566027
1478.32107	0.0734262466
1476.89136	0.0738257915
1475.46165	0.0743955374
1474.03194	0.0751430839
1472.60223	0.0759885460
1471.17252	0.0767804161
1469.74281	0.0774015412
1468.31310	0.0778311789
1466.88338	0.0781170353
1465.45367	0.0783225298
1464.02396	0.0784930065
1462.59425	0.0786478892
1461.16454	0.0787977055
1459.73483	0.0789645538
1458.30512	0.0791712850
1456.87541	0.0793953985
1455.44570	0.0795498863
1454.01599	0.0795532092
1452.58628	0.0793910474
1451.15656	0.0790961832
1449.72685	0.0787136331
1448.29714	0.0782887638
1446.86743	0.0778621733
1445.43772	0.0774557739
1444.00801	0.0770613179
1442.57830	0.0766466781
1441.14859	0.0761734769
1439.71888	0.0756152272
1438.28917	0.0749774203
1436.85946	0.0743120164
1435.42974	0.0737049505
1434.00003	0.0732324943
1432.57032	0.0729295611
1431.14061	0.0727979541
1429.71090	0.0728250146
1428.28119	0.0729880780
1426.85148	0.0732531473
1425.42177	0.0735834390
1423.99206	0.0739539713
1422.56235	0.0743595958
1421.13264	0.0748121589
1419.70292	0.0753232837
1418.27321	0.0758820847
1416.84350	0.0764523745
1415.41379	0.0769968703
1413.98408	0.0775004551
1412.55437	0.0779694691
1411.12466	0.0784171224
1409.69495	0.0788502470
1408.26524	0.0792652592
1406.83553	0.0796496943
1405.40582	0.0799823999
1403.97610	0.0802340209
1402.54639	0.0803715512
1401.11668	0.0803707689
1399.68697	0.0802263618
1398.25726	0.0799542367
1396.82755	0.0795875341
1395.39784	0.0791674033
1393.96813	0.0787274763
1392.53842	0.0782796517
1391.10871	0.0778113604
1389.67900	0.0772961825
1388.24928	0.0767121837
1386.81957	0.0760595948
1385.38986	0.0753637701
1383.96015	0.0746579319
1382.53044	0.0739623234
1381.10073	0.0732801110
1379.67102	0.0726108104
1378.24131	0.0719624907
1376.81160	0.0713570565
1375.38189	0.0708250999
1373.95218	0.0703954548
1372.52246	0.0700803846
1371.09275	0.0698654652
1369.66304	0.0697122812
1368.23333	0.0695739239
1366.80362	0.0694138929
1365.37391	0.0692209229
1363.94420	0.0690133199
1362.51449	0.0688286796
1361.08478	0.0687031001
1359.65507	0.0686517954
1358.22536	0.0686667114
1356.79565	0.0687263235
1355.36593	0.0688075125
1353.93622	0.0688919872
1352.50651	0.0689703524
1351.07680	0.0690397173
1349.64709	0.0690970421
1348.21738	0.0691335872
1346.78767	0.0691371709
1345.35796	0.0691025704
1343.92825	0.0690403879
1342.49854	0.0689763278
1341.06883	0.0689430460
1339.63911	0.0689647719
1338.20940	0.0690443888
1336.77969	0.0691633672
1335.34998	0.0692966431
1333.92027	0.0694309026
1332.49056	0.0695699155
1331.06085	0.0697270557
1329.63114	0.0699117407
1328.20143	0.0701209903
1326.77172	0.0703427345
1325.34201	0.0705669597
1323.91229	0.0707940459
1322.48258	0.0710318014
1321.05287	0.0712852776
1319.62316	0.0715498179
1318.19345	0.0718119591
1316.76374	0.0720583424
1315.33403	0.0722834244
1313.90432	0.0724923238
1312.47461	0.0726949573
1311.04490	0.0729000196
1309.61519	0.0731106848
1308.18547	0.0733251274
1306.75576	0.0735405385
1305.32605	0.0737553239
1303.89634	0.0739685223
1302.46663	0.0741759911
1301.03692	0.0743686557
1299.60721	0.0745373517
1298.17750	0.0746772066
1296.74779	0.0747914612
1295.31808	0.0748880878
1293.88837	0.0749755725
1292.45865	0.0750591680
1291.02894	0.0751404688
1289.59923	0.0752173513
1288.16952	0.0752856880
1286.73981	0.0753417537
1285.31010	0.0753857866
1283.88039	0.0754243433
1282.45068	0.0754670575
1281.02097	0.0755226538
1279.59126	0.0755959675
1278.16155	0.0756906793
1276.73183	0.0758131891
1275.30212	0.0759731308
1273.87241	0.0761821717
1272.44270	0.0764491633
1271.01299	0.0767783746
1269.58328	0.0771691203
1268.15357	0.0776188001
1266.72386	0.0781262070
1265.29415	0.0786954835
1263.86444	0.0793367848
1262.43473	0.0800613910
1261.00501	0.0808725506
1259.57530	0.0817569345
1258.14559	0.0826844275
1256.71588	0.0836153105
1255.28617	0.0845085755
1253.85646	0.0853253528
1252.42675	0.0860291943
1250.99704	0.0865890831
1249.56733	0.0869840160
1248.13762	0.0872081444
1246.70791	0.0872703567
1245.27819	0.0871878266
1243.84848	0.0869800895
1242.41877	0.0866648033
1240.98906	0.0862572193
1239.55935	0.0857720450
1238.12964	0.0852235630
1236.69993	0.0846267641
1235.27022	0.0839973018
1233.84051	0.0833515301
1232.41080	0.0827058405
1230.98109	0.0820739642
1229.55137	0.0814646110
1228.12166	0.0808799714
1226.69195	0.0803144574
1225.26224	0.0797562748
1223.83253	0.0791896731
1222.40282	0.0785998031
1220.97311	0.0779778287
1219.54340	0.0773225650
1218.11369	0.0766412690
1216.68398	0.0759464875
1215.25427	0.0752550885
1213.82455	0.0745869204
1212.39484	0.0739624128
1210.96513	0.0733985677
1209.53542	0.0729039684
1208.10571	0.0724776164
1206.67600	0.0721117929
1205.24629	0.0717994720
1203.81658	0.0715405121
1202.38687	0.0713432953
1200.95716	0.0712205842
1199.52745	0.0711843818
1198.09774	0.0712422058
1196.66802	0.0713958666
1195.23831	0.0716429502
1193.80860	0.0719762668
1192.37889	0.0723828301
1190.94918	0.0728446320
1189.51947	0.0733426884
1188.08976	0.0738640577
1186.66005	0.0744058937
1185.23034	0.0749756321
1183.80063	0.0755868480
1182.37092	0.0762554482
1180.94120	0.0769967735
1179.51149	0.0778222904
1178.08178	0.0787338391
1176.65207	0.0797182992
1175.22236	0.0807485431
1173.79265	0.0817902759
1172.36294	0.0828153417
1170.93323	0.0838103965
1169.50352	0.0847798586
1168.07381	0.0857390314
1166.64410	0.0867045298
1165.21438	0.0876873806
1163.78467	0.0886936784
1162.35496	0.0897286311
1160.92525	0.0907993913
1159.49554	0.0919114053
1158.06583	0.0930618793
1156.63612	0.0942355320
1155.20641	0.0954068899
1153.77670	0.0965491086
1152.34699	0.0976444259
1150.91728	0.0986920893
1149.48756	0.0997110158
1148.05785	0.1007355079
1146.62814	0.1018059030
1145.19843	0.1029552966
1143.76872	0.1042022929
1142.33901	0.1055510417
1140.90930	0.1069992855
1139.47959	0.1085456312
1138.04988	0.1101902723
1136.62017	0.1119302586
1135.19046	0.1137548015
1133.76074	0.1156459227
1132.33103	0.1175847128
1130.90132	0.1195569485
1129.47161	0.1215563938
1128.04190	0.1235838383
1126.61219	0.1256432980
1125.18248	0.1277379394
1123.75277	0.1298657507
1122.32306	0.1320166141
1120.89335	0.1341710985
1119.46364	0.1363051385
1118.03392	0.1383986622
1116.60421	0.1404467225
1115.17450	0.1424652934
1113.74479	0.1444846988
1112.31508	0.1465290636
1110.88537	0.1485920250
1109.45566	0.1506271213
1108.02595	0.1525625736
1106.59624	0.1543366909
1105.16653	0.1559295207
1103.73682	0.1573660076
1102.30710	0.1586894989
1100.87739	0.1599257588
1099.44768	0.1610669196
1098.01797	0.1620854288
1096.58826	0.1629629135
1095.15855	0.1637087166
1093.72884	0.1643523276
1092.29913	0.1649161875
1090.86942	0.1653909236
1089.43971	0.1657287031
1088.01000	0.1658601314
1086.58028	0.1657247245
1085.15057	0.1652973890
1083.72086	0.1645970196
1082.29115	0.1636733562
1080.86144	0.1625790894
1079.43173	0.1613470465
1078.00202	0.1599816829
1076.57231	0.1584702432
1075.14260	0.1568033397
1073.71289	0.1549896598
1072.28318	0.1530582905
1070.85346	0.1510488242
1069.42375	0.1489952058
1067.99404	0.1469147950
1066.56433	0.1448050886
1065.13462	0.1426471323
1063.70491	0.1404139251
1062.27520	0.1380787492
1060.84549	0.1356223673
1059.41578	0.1330375671
1057.98607	0.1303307116
1056.55636	0.1275205016
1055.12664	0.1246351153
1053.69693	0.1217092648
1052.26722	0.1187804639
1050.83751	0.1158852503
1049.40780	0.1130570546
1047.97809	0.1103245765
1046.54838	0.1077110097
1045.11867	0.1052303538
1043.68896	0.1028845906
1042.25925	0.1006625816
1040.82954	0.0985473320
1039.39983	0.0965264812
1037.97011	0.0946006253
1036.54040	0.0927808285
1035.11069	0.0910780430
1033.68098	0.0894906595
1032.25127	0.0880002454
1030.82156	0.0865786895
1029.39185	0.0852019563
1027.96214	0.0838620141
1026.53243	0.0825695470
1025.10272	0.0813484341
1023.67301	0.0802277923
1022.24329	0.0792368948
1020.81358	0.0784027949
1019.38387	0.0777462721
1017.95416	0.0772766694
1016.52445	0.0769890472
1015.09474	0.0768701062
1013.66503	0.0769100264
1012.23532	0.0771115795
1010.80561	0.0774892196
1009.37590	0.0780587196
1007.94619	0.0788265690
1006.51647	0.0797851086
1005.08676	0.0809154287
1003.65705	0.0821906850
1002.22734	0.0835771188
1000.79763	0.0850337371
999.36792	0.0865125284
997.93821	0.0879603401
996.50850	0.0893181935
995.07879	0.0905198976
993.64908	0.0914925113
992.21937	0.0921654254
990.78965	0.0924891904
989.35994	0.0924522951
987.93023	0.0920825377
986.50052	0.0914306864
985.07081	0.0905461982
983.64110	0.0894643888
982.21139	0.0882097110
980.78168	0.0868101642
979.35197	0.0853051841
977.92226	0.0837415457
976.49255	0.0821610913
975.06283	0.0805899203
973.63312	0.0790365562
972.20341	0.0774956867
970.77370	0.0759569108
969.34399	0.0744167119
967.91428	0.0728902519
966.48457	0.0714149624
965.05486	0.0700403824
963.62515	0.0688092411
962.19544	0.0677415654
960.76573	0.0668337271
959.33601	0.0660691783
957.90630	0.0654328912
956.47659	0.0649151653
955.04688	0.0645082369
953.61717	0.0641997755
952.18746	0.0639707968
950.75775	0.0637998953
949.32804	0.0636701807
947.89833	0.0635753274
946.46862	0.0635180026
945.03891	0.0635024831
943.60919	0.0635237619
942.17948	0.0635625347
940.74977	0.0635911524
939.32006	0.0635865927
937.89035	0.0635401160
936.46064	0.0634567961
935.03093	0.0633474588
933.60122	0.0632209927
932.17151	0.0630832538
930.74180	0.0629413947
929.31209	0.0628065243
927.88237	0.0626907125
926.45266	0.0626000762
925.02295	0.0625293404
923.59324	0.0624628887
922.16353	0.0623805523
920.73382	0.0622638091
919.30411	0.0620998777
917.87440	0.0618817359
916.44469	0.0616089031
915.01498	0.0612891689
913.58527	0.0609411933
912.15555	0.0605926327
910.72584	0.0602734983
909.29613	0.0600063689
907.86642	0.0598032698
906.43671	0.0596695766
905.00700	0.0596107170
903.57729	0.0596373826
902.14758	0.0597626604
900.71787	0.0599950142
899.28816	0.0603316128
897.85845	0.0607579611
896.42873	0.0612517595
894.99902	0.0617930330
893.56931	0.0623700917
892.13960	0.0629798770
890.70989	0.0636227354
889.28018	0.0642956942
887.85047	0.0649887323
886.42076	0.0656848624
884.99105	0.0663637072
883.56134	0.0670066774
882.13163	0.0676023215
880.70192	0.0681527555
879.27220	0.0686734989
877.84249	0.0691853464
876.41278	0.0697012246
874.98307	0.0702167079
873.55336	0.0707120374
872.12365	0.0711638555
870.69394	0.0715568736
869.26423	0.0718865767
867.83452	0.0721520409
866.40481	0.0723492876
864.97510	0.0724685267
863.54538	0.0725001544
862.11567	0.0724402368
860.68596	0.0722925961
859.25625	0.0720653683
857.82654	0.0717654824
856.39683	0.0713974833
854.96712	0.0709650442
853.53741	0.0704750046
852.10770	0.0699409023
850.67799	0.0693828240
849.24828	0.0688240677
847.81856	0.0682874471
846.38885	0.0677908882
844.95914	0.0673445538
843.52943	0.0669482648
842.09972	0.0665913522
840.67001	0.0662572235
839.24030	0.0659324825
837.81059	0.0656133145
836.38088	0.0653044581
834.95117	0.0650101975
833.52146	0.0647230446
832.09174	0.0644224733
830.66203	0.0640850291
829.23232	0.0637010857
827.80261	0.0632849261
826.37290	0.0628717393
824.94319	0.0625021681
823.51348	0.0622052550
822.08377	0.0619878955
820.65406	0.0618367270
819.22435	0.0617286637
817.79464	0.0616444349
816.36492	0.0615774617
814.93521	0.0615310818
813.50550	0.0615085922
812.07579	0.0615028068
810.64608	0.0614953488
809.21637	0.0614668988
807.78666	0.0614122115
806.35695	0.0613470934
804.92724	0.0613012128
803.49753	0.0612997524
802.06782	0.0613453947
800.63810	0.0614157580
799.20839	0.0614763238
797.77868	0.0615057573
796.34897	0.0615116060
794.91926	0.0615236238
793.48955	0.0615675598
792.05984	0.0616415106
790.63013	0.0617189668
789.20042	0.0617775731
787.77071	0.0618235022
786.34100	0.0618887506
784.91128	0.0620007366
783.48157	0.0621558763
782.05186	0.0623222813
780.62215	0.0624674931
779.19244	0.0625810027
777.76273	0.0626730397
776.33302	0.0627554059
774.90331	0.0628306344
773.47360	0.0628984869
772.04389	0.0629680306
770.61418	0.0630564913
769.18446	0.0631718338
767.75475	0.0632964596
766.32504	0.0633928403
764.89533	0.0634279773
763.46562	0.0634018555
762.03591	0.0633554012
760.60620	0.0633537769
759.17649	0.0634524524
757.74678	0.0636682957
756.31707	0.0639689416
754.88736	0.0642886758
753.45764	0.0645593852
752.02793	0.0647419691
750.59822	0.0648397878
749.16851	0.0648866445
747.73880	0.0649202764
746.30909	0.0649570748
744.87938	0.0649897829
743.44967	0.0650068596
742.01996	0.0650173202
740.59025	0.0650558993
739.16054	0.0651601925
737.73082	0.0653384328
736.30111	0.0655583739
734.87140	0.0657683387
733.44169	0.0659328178
732.01198	0.0660517886
730.58227	0.0661535114
729.15256	0.0662728176
727.72285	0.0664341077
726.29314	0.0666481182
724.86343	0.0669155270
723.43372	0.0672278926
722.00401	0.0675682053
720.57429	0.0679161176
719.14458	0.0682588518
717.71487	0.0685999542
716.28516	0.0689556673
714.85545	0.0693398863
713.42574	0.0697471797
711.99603	0.0701476112
710.56632	0.0705000609
709.13661	0.0707762241
707.70690	0.0709803179
706.27719	0.0711477250
704.84747	0.0713218525
703.41776	0.0715242103
701.98805	0.0717410520
700.55834	0.0719336197
699.12863	0.0720650628
697.69892	0.0721217245
696.26921	0.0721151531
694.83950	0.0720676631
693.40979	0.0719959140
691.98008	0.0719051808
690.55037	0.0717983097
689.12065	0.0716865808
687.69094	0.0715913624
686.26123	0.0715317801
684.83152	0.0715089515
683.40181	0.0715048313
681.97210	0.0714960098
680.54239	0.0714731216
679.11268	0.0714490488
677.68297	0.0714464262
676.25326	0.0714737624
674.82355	0.0715111494
673.39383	0.0715168566
671.96412	0.0714526474
670.53441	0.0713195950
669.10470	0.0711881295
667.67499	0.0711719990
666.24528	0.0713190734
664.81557	0.0715550706
663.38586	0.0717584565
661.95615	0.0718451589
660.52644	0.0717926621
659.09673	0.0716335177
657.66701	0.0714326277
656.23730	0.0712548345
654.80759	0.0711418688
653.37788	0.0711101294
651.94817	0.0711555332
650.51846	0.0712519065
649.08875	0.0713541582
647.65904	0.0714144483
646.22933	0.0714090466
644.79962	0.0713520497
643.36991	0.0712860972
641.94019	0.0712566003
640.51048	0.0712864920
639.08077	0.0713631287
637.65106	0.0714405924
636.22135	0.0714580789
634.79164	0.0713618770
633.36193	0.0711185709
631.93222	0.0707122162
630.50251	0.0701343790
629.07280	0.0693872571
627.64309	0.0685034990
626.21337	0.0675688460
624.78366	0.0667134300
623.35395	0.0660525411
621.92424	0.0656115413
620.49453	0.0653077736
619.06482	0.0650187954
617.63511	0.0646744296
616.20540	0.0642861500
614.77569	0.0639090762
613.34598	0.0635874644
611.91627	0.0633318871
610.48655	0.0631392896
609.05684	0.0630252808
607.62713	0.0630299449
606.19742	0.0631865337
604.76771	0.0634775609
603.33800	0.0638286248
601.90829	0.0641524196
600.47858	0.0644058734
599.04887	0.0646122470
