3997.47168	0.0256848894
3996.04197	0.0257149898
3994.61226	0.0257245488
3993.18255	0.0257164463
3991.75284	0.0257012025
3990.32312	0.0256924964
3988.89341	0.0257001594
3987.46370	0.0257262234
3986.03399	0.0257632770
3984.60428	0.0257969815
3983.17457	0.0258133262
3981.74486	0.0258045625
3980.31515	0.0257732198
3978.88544	0.0257301237
3977.45573	0.0256871153
3976.02602	0.0256525669
3974.59630	0.0256297197
3973.16659	0.0256187096
3971.73688	0.0256192032
3970.30717	0.0256292541
3968.87746	0.0256446861
3967.44775	0.0256587453
3966.01804	0.0256666541
3964.58833	0.0256679188
3963.15862	0.0256678630
3961.72891	0.0256731901
3960.29920	0.0256852191
3958.86948	0.0256962050
3957.43977	0.0256937053
3956.01006	0.0256699510
3954.58035	0.0256276615
3953.15064	0.0255792253
3951.72093	0.0255397167
3950.29122	0.0255190991
3948.86151	0.0255199783
3947.43180	0.0255382620
3946.00209	0.0255684350
3944.57238	0.0256062429
3943.14266	0.0256500132
3941.71295	0.0256993640
3940.28324	0.0257510263
3938.85353	0.0257960204
3937.42382	0.0258203037
3935.99411	0.0258118436
3934.56440	0.0257703625
3933.13469	0.0257100202
3931.70498	0.0256513041
3930.27527	0.0256042928
3928.84556	0.0255625043
3927.41585	0.0255141854
3925.98613	0.0254574176
3924.55642	0.0254044179
3923.12671	0.0253721159
3921.69700	0.0253689867
3920.26729	0.0253906399
3918.83758	0.0254285429
3917.40787	0.0254772361
3915.97816	0.0255357362
3914.54845	0.0255996808
3913.11874	0.0256565772
3911.68903	0.0256882682
3910.25931	0.0256765969
3908.82960	0.0256094560
3907.39989	0.0254841819
3905.97018	0.0253109206
3904.54047	0.0251205340
3903.11076	0.0249666926
3901.68105	0.0249081869
3900.25134	0.0249691047
3898.82163	0.0251171049
3897.39192	0.0252882838
3895.96221	0.0254268404
3894.53249	0.0255071037
3893.10278	0.0255380142
3891.67307	0.0255506430
3890.24336	0.0255748052
3888.81365	0.0256159082
3887.38394	0.0256530065
3885.95423	0.0256561097
3884.52452	0.0256095100
3883.09481	0.0255219825
3881.66510	0.0254244264
3880.23539	0.0253498331
3878.80567	0.0253143515
3877.37596	0.0253088642
3875.94625	0.0253078211
3874.51654	0.0252848547
3873.08683	0.0252303109
3871.65712	0.0251586586
3870.22741	0.0251014996
3868.79770	0.0250812043
3867.36799	0.0250986461
3865.93828	0.0251427777
3864.50857	0.0252070483
3863.07885	0.0252881199
3861.64914	0.0253730491
3860.21943	0.0254303534
3858.78972	0.0254167132
3857.36001	0.0252963230
3855.93030	0.0250747316
3854.50059	0.0248480458
3853.07088	0.0247896928
3851.64117	0.0249871742
3850.21146	0.0253444258
3848.78175	0.0257013682
3847.35203	0.0259532053
3845.92232	0.0260590706
3844.49261	0.0260219648
3843.06290	0.0258803610
3841.63319	0.0257006809
3840.20348	0.0255566556
3838.77377	0.0254956000
3837.34406	0.0255146530
3835.91435	0.0255743377
3834.48464	0.0256391391
3833.05493	0.0257007089
3831.62521	0.0257682763
3830.19550	0.0258448645
3828.76579	0.0259144604
3827.33608	0.0259496327
3825.90637	0.0259285830
3824.47666	0.0258501396
3823.04695	0.0257367715
3821.61724	0.0256278533
3820.18753	0.0255647283
3818.75782	0.0255743917
3817.32811	0.0256629754
3815.89839	0.0258153584
3814.46868	0.0259989072
3813.03897	0.0261722766
3811.60926	0.0262946971
3810.17955	0.0263353996
3808.74984	0.0262824297
3807.32013	0.0261503085
3805.89042	0.0259816479
3804.46071	0.0258336831
3803.03100	0.0257551465
3801.60129	0.0257728621
3800.17157	0.0258886870
3798.74186	0.0260822158
3797.31215	0.0263183489
3795.88244	0.0265598651
3794.45273	0.0267756358
3793.02302	0.0269446075
3791.59331	0.0270537455
3790.16360	0.0270983223
3788.73389	0.0270854291
3787.30418	0.0270369686
3785.87447	0.0269849859
3784.44475	0.0269567259
3783.01504	0.0269599203
3781.58533	0.0269839950
3780.15562	0.0270158667
3778.72591	0.0270536356
3777.29620	0.0271031167
3775.86649	0.0271650329
3774.43678	0.0272289701
3773.00707	0.0272796843
3771.57736	0.0273070838
3770.14765	0.0273111649
3768.71794	0.0273022056
3767.28822	0.0272925291
3765.85851	0.0272858590
3764.42880	0.0272733178
3762.99909	0.0272401050
3761.56938	0.0271778740
3760.13967	0.0270936936
3758.70996	0.0270045996
3757.28025	0.0269162934
3755.85054	0.0268141832
3754.42083	0.0266772471
3752.99112	0.0265104175
3751.56140	0.0263634827
3750.13169	0.0263048448
3748.70198	0.0263675265
3747.27227	0.0265373830
3745.84256	0.0267906692
3744.41285	0.0271092616
3742.98314	0.0274547525
3741.55343	0.0277574398
3740.12372	0.0279431641
3738.69401	0.0279667955
3737.26430	0.0278360639
3735.83458	0.0276302770
3734.40487	0.0274820793
3732.97516	0.0274868235
3731.54545	0.0276308283
3730.11574	0.0278312899
3728.68603	0.0280128755
3727.25632	0.0281416979
3725.82661	0.0282259155
3724.39690	0.0283037405
3722.96719	0.0284157638
3721.53748	0.0285754483
3720.10776	0.0287601929
3718.67805	0.0289289411
3717.24834	0.0290438663
3715.81863	0.0290819220
3714.38892	0.0290472433
3712.95921	0.0289869402
3711.52950	0.0289879907
3710.09979	0.0291222241
3708.67008	0.0293790456
3707.24037	0.0296821631
3705.81066	0.0299626663
3704.38094	0.0301960632
3702.95123	0.0303952973
3701.52152	0.0305875689
3700.09181	0.0307922885
3698.66210	0.0310122594
3697.23239	0.0312379040
3695.80268	0.0314551480
3694.37297	0.0316528715
3692.94326	0.0318294056
3691.51355	0.0320002697
3690.08384	0.0321971290
3688.65412	0.0324478224
3687.22441	0.0327529795
3685.79470	0.0330860093
3684.36499	0.0334119946
3682.93528	0.0336985812
3681.50557	0.0339209512
3680.07586	0.0340737700
3678.64615	0.0341879651
3677.21644	0.0343351066
3675.78673	0.0345976911
3674.35702	0.0350166410
3672.92730	0.0355747119
3671.49759	0.0362304524
3670.06788	0.0369467922
3668.63817	0.0376882590
3667.20846	0.0384244286
3665.77875	0.0391415358
3664.34904	0.0398432054
3662.91933	0.0405331627
3661.48962	0.0412020758
3660.05991	0.0418339670
3658.63020	0.0424237922
3657.20048	0.0429865830
3655.77077	0.0435427465
3654.34106	0.0441015176
3652.91135	0.0446695574
3651.48164	0.0452814884
3650.05193	0.0460092425
3648.62222	0.0469080731
3647.19251	0.0479420088
3645.76280	0.0490125790
3644.33309	0.0500516891
3642.90338	0.0510448702
3641.47366	0.0520011969
3640.04395	0.0529294275
3638.61424	0.0538336262
3637.18453	0.0547112897
3635.75482	0.0555527471
3634.32511	0.0563502461
3632.89540	0.0571265928
3631.46569	0.0579557084
3630.03598	0.0589354560
3628.60627	0.0600904301
3627.17656	0.0613139123
3625.74684	0.0624618120
3624.31713	0.0634735152
3622.88742	0.0643754900
3621.45771	0.0652268156
3620.02800	0.0660766512
3618.59829	0.0669518560
3617.16858	0.0678544343
3615.73887	0.0687721446
3614.30916	0.0696934089
3612.87945	0.0706247389
3611.44974	0.0715949312
3610.02003	0.0726345554
3608.59031	0.0737421885
3607.16060	0.0748711452
3605.73089	0.0759606734
3604.30118	0.0769740269
3602.87147	0.0779079199
3601.44176	0.0787785202
3600.01205	0.0796092674
3598.58234	0.0804266259
3597.15263	0.0812554434
3595.72292	0.0821068659
3594.29321	0.0829720199
3592.86349	0.0838375539
3591.43378	0.0847072080
3590.00407	0.0856073201
3588.57436	0.0865652636
3587.14465	0.0875787735
3585.71494	0.0886111036
3584.28523	0.0896173120
3582.85552	0.0905703083
3581.42581	0.0914642662
3579.99610	0.0923085809
3578.56639	0.0931266993
3577.13667	0.0939477086
3575.70696	0.0947852805
3574.27725	0.0956254750
3572.84754	0.0964419842
3571.41783	0.0972255394
3569.98812	0.0980020836
3568.55841	0.0988205075
3567.12870	0.0997166485
3565.69899	0.1006845161
3564.26928	0.1016843840
3562.83957	0.1026760638
3561.40985	0.1036368236
3559.98014	0.1045581773
3558.55043	0.1054451615
3557.12072	0.1063138247
3555.69101	0.1071834639
3554.26130	0.1080616191
3552.83159	0.1089410931
3551.40188	0.1098120138
3549.97217	0.1106772050
3548.54246	0.1115513444
3547.11275	0.1124482825
3545.68303	0.1133664995
3544.25332	0.1142883748
3542.82361	0.1151885614
3541.39390	0.1160463467
3539.96419	0.1168529764
3538.53448	0.1176170558
3537.10477	0.1183591932
3535.67506	0.1191005185
3534.24535	0.1198524311
3532.81564	0.1206169873
3531.38593	0.1213966608
3529.95621	0.1221983135
3528.52650	0.1230231225
3527.09679	0.1238601804
3525.66708	0.1246926486
3524.23737	0.1255138218
3522.80766	0.1263327748
3521.37795	0.1271624714
3519.94824	0.1280043572
3518.51853	0.1288453937
3517.08882	0.1296665519
3515.65911	0.1304533482
3514.22939	0.1312018782
3512.79968	0.1319233030
3511.36997	0.1326401830
3509.94026	0.1333752126
3508.51055	0.1341333389
3507.08084	0.1348997504
3505.65113	0.1356535405
3504.22142	0.1363864541
3502.79171	0.1371040344
3501.36200	0.1378129572
3499.93229	0.1385126710
3498.50257	0.1392010599
3497.07286	0.1398830116
3495.64315	0.1405664980
3494.21344	0.1412511021
3492.78373	0.1419247240
3491.35402	0.1425732225
3489.92431	0.1431909502
3488.49460	0.1437817961
3487.06489	0.1443540305
3485.63518	0.1449200064
3484.20547	0.1454978287
3482.77575	0.1461012810
3481.34604	0.1467253119
3479.91633	0.1473424286
3478.48662	0.1479221135
3477.05691	0.1484560668
3475.62720	0.1489643753
3474.19749	0.1494770050
3472.76778	0.1500110179
3471.33807	0.1505622715
3469.90836	0.1511138976
3468.47865	0.1516476721
3467.04893	0.1521505117
3465.61922	0.1526182592
3464.18951	0.1530563086
3462.75980	0.1534758508
3461.33009	0.1538864225
3459.90038	0.1542918235
3458.47067	0.1546960026
3457.04096	0.1551073343
3455.61125	0.1555338204
3454.18154	0.1559725255
3452.75183	0.1564073265
3451.32212	0.1568193883
3449.89240	0.1572010964
3448.46269	0.1575580537
3447.03298	0.1579035819
3445.60327	0.1582515538
3444.17356	0.1586162746
3442.74385	0.1590077132
3441.31414	0.1594231427
3439.88443	0.1598440558
3438.45472	0.1602460295
3437.02501	0.1606134474
3435.59530	0.1609457135
3434.16558	0.1612472236
3432.73587	0.1615169644
3431.30616	0.1617491394
3429.87645	0.1619459242
3428.44674	0.1621215194
3427.01703	0.1622957885
3425.58732	0.1624831855
3424.15761	0.1626877636
3422.72790	0.1629087478
3421.29819	0.1631446481
3419.86848	0.1633948237
3418.43876	0.1636573970
3417.00905	0.1639272422
3415.57934	0.1641945243
3414.14963	0.1644457132
3412.71992	0.1646686196
3411.29021	0.1648598462
3409.86050	0.1650281847
3408.43079	0.1651876718
3407.00108	0.1653466374
3405.57137	0.1655024588
3404.14166	0.1656456441
3402.71194	0.1657698452
3401.28223	0.1658751518
3399.85252	0.1659678966
3398.42281	0.1660557985
3396.99310	0.1661442518
3395.56339	0.1662329137
3394.13368	0.1663134992
3392.70397	0.1663725376
3391.27426	0.1664005220
3389.84455	0.1663990468
3388.41484	0.1663801372
3386.98512	0.1663608849
3385.55541	0.1663583368
3384.12570	0.1663866192
3382.69599	0.1664530784
3381.26628	0.1665525138
3379.83657	0.1666667461
3378.40686	0.1667749435
3376.97715	0.1668658108
3375.54744	0.1669429094
3374.11773	0.1670151204
3372.68802	0.1670821309
3371.25830	0.1671308130
3369.82859	0.1671448797
3368.39888	0.1671184897
3366.96917	0.1670633703
3365.53946	0.1670014262
3364.10975	0.1669507474
3362.68004	0.1669147760
3361.25033	0.1668826193
3359.82062	0.1668433547
3358.39091	0.1668020338
3356.96120	0.1667810977
3355.53148	0.1668030173
3354.10177	0.1668683290
3352.67206	0.1669502854
3351.24235	0.1670142859
3349.81264	0.1670445204
3348.38293	0.1670522690
3346.95322	0.1670607179
3345.52351	0.1670822799
3344.09380	0.1671112180
3342.66409	0.1671310365
3341.23438	0.1671285629
3339.80466	0.1671004593
3338.37495	0.1670534462
3336.94524	0.1670033336
3335.51553	0.1669711173
3334.08582	0.1669762135
3332.65611	0.1670262963
3331.22640	0.1671129316
3329.79669	0.1672160178
3328.36698	0.1673139185
3326.93727	0.1673908979
3325.50756	0.1674396545
3324.07784	0.1674616933
3322.64813	0.1674671024
3321.21842	0.1674725860
3319.78871	0.1674958467
3318.35900	0.1675506681
3316.92929	0.1676456630
3315.49958	0.1677868962
3314.06987	0.1679786593
3312.64016	0.1682185531
3311.21045	0.1684905142
3309.78074	0.1687629521
3308.35102	0.1689966023
3306.92131	0.1691587865
3305.49160	0.1692367941
3304.06189	0.1692445427
3302.63218	0.1692169458
3301.20247	0.1691962779
3299.77276	0.1692127436
3298.34305	0.1692696661
3296.91334	0.1693425179
3295.48363	0.1693906486
3294.05392	0.1693766564
3292.62421	0.1692825854
3291.19449	0.1691136211
3289.76478	0.1688920259
3288.33507	0.1686431319
3286.90536	0.1683875471
3285.47565	0.1681383699
3284.04594	0.1679050028
3282.61623	0.1676934212
3281.18652	0.1675023437
3279.75681	0.1673190147
3278.32710	0.1671212167
3276.89739	0.1668845564
3275.46767	0.1665898860
3274.03796	0.1662245542
3272.60825	0.1657800823
3271.17854	0.1652520150
3269.74883	0.1646444499
3268.31912	0.1639714986
3266.88941	0.1632560641
3265.45970	0.1625216901
3264.02999	0.1617895216
3262.60028	0.1610763669
3261.17057	0.1603945345
3259.74085	0.1597470045
3258.31114	0.1591230035
3256.88143	0.1585034281
3255.45172	0.1578763276
3254.02201	0.1572482735
3252.59230	0.1566413641
3251.16259	0.1560750008
3249.73288	0.1555481851
3248.30317	0.1550399959
3246.87346	0.1545263380
3245.44375	0.1539968699
3244.01403	0.1534598172
3242.58432	0.1529310942
3241.15461	0.1524228156
3239.72490	0.1519376189
3238.29519	0.1514710635
3236.86548	0.1510141194
3235.43577	0.1505564898
3234.00606	0.1500895023
3232.57635	0.1496123374
3231.14664	0.1491350234
3229.71693	0.1486756802
3228.28721	0.1482486874
3226.85750	0.1478541791
3225.42779	0.1474754959
3223.99808	0.1470899731
3222.56837	0.1466827840
3221.13866	0.1462543458
3219.70895	0.1458156705
3218.27924	0.1453776360
3216.84953	0.1449421197
3215.41982	0.1445050240
3213.99011	0.1440658867
3212.56039	0.1436349303
3211.13068	0.1432279497
3209.70097	0.1428543329
3208.27126	0.1425047964
3206.84155	0.1421538442
3205.41184	0.1417724341
3203.98213	0.1413437128
3202.55242	0.1408700496
3201.12271	0.1403696835
3199.69300	0.1398656815
3198.26329	0.1393752247
3196.83357	0.1389040500
3195.40386	0.1384475380
3193.97415	0.1379949450
3192.54444	0.1375357658
3191.11473	0.1370645314
3189.68502	0.1365855038
3188.25531	0.1361113042
3186.82560	0.1356577426
3185.39589	0.1352304518
3183.96618	0.1348169744
3182.53647	0.1343890727
3181.10675	0.1339187026
3179.67704	0.1333967447
3178.24733	0.1328395754
3176.81762	0.1322776377
3175.38791	0.1317364424
3173.95820	0.1312235743
3172.52849	0.1307315081
3171.09878	0.1302474737
3169.66907	0.1297620237
3168.23936	0.1292704493
3166.80965	0.1287720650
3165.37993	0.1282689124
3163.95022	0.1277675033
3162.52051	0.1272755116
3161.09080	0.1267989427
3159.66109	0.1263377219
3158.23138	0.1258856058
3156.80167	0.1254328191
3155.37196	0.1249677986
3153.94225	0.1244795546
3152.51254	0.1239608973
3151.08283	0.1234133840
3149.65311	0.1228516176
3148.22340	0.1223004609
3146.79369	0.1217857003
3145.36398	0.1213214174
3143.93427	0.1209017411
3142.50456	0.1205034479
3141.07485	0.1200977340
3139.64514	0.1196645796
3138.21543	0.1192020103
3136.78572	0.1187229604
3135.35601	0.1182449833
3133.92629	0.1177786589
3132.49658	0.1173233911
3131.06687	0.1168717444
3129.63716	0.1164201945
3128.20745	0.1159743592
3126.77774	0.1155479923
3125.34803	0.1151550859
3123.91832	0.1148009002
3122.48861	0.1144769192
3121.05890	0.1141657084
3119.62919	0.1138482541
3118.19948	0.1135133877
3116.76976	0.1131607071
3115.34005	0.1127978340
3113.91034	0.1124316156
3112.48063	0.1120591015
3111.05092	0.1116670892
3109.62121	0.1112424880
3108.19150	0.1107883006
3106.76179	0.1103296205
3105.33208	0.1099036857
3103.90237	0.1095355377
3102.47266	0.1092200503
3101.04294	0.1089249551
3099.61323	0.1086143702
3098.18352	0.1082729176
3096.75381	0.1079117879
3095.32410	0.1075546667
3093.89439	0.1072189808
3092.46468	0.1069085523
3091.03497	0.1066182330
3089.60526	0.1063434482
3088.17555	0.1060821936
3086.74584	0.1058304384
3085.31612	0.1055784374
3083.88641	0.1053108722
3082.45670	0.1050121561
3081.02699	0.1046723723
3079.59728	0.1042898297
3078.16757	0.1038721204
3076.73786	0.1034345031
3075.30815	0.1029971987
3073.87844	0.1025798395
3072.44873	0.1021942571
3071.01902	0.1018370613
3069.58930	0.1014879420
3068.15959	0.1011184528
3066.72988	0.1007075012
3065.30017	0.1002564281
3063.87046	0.0997892469
3062.44075	0.0993371755
3061.01104	0.0989195183
3059.58133	0.0985337272
3058.15162	0.0981618091
3056.72191	0.0977839530
3055.29220	0.0973885804
3053.86248	0.0969731063
3052.43277	0.0965408981
3051.00306	0.0960991755
3049.57335	0.0956582204
3048.14364	0.0952286422
3046.71393	0.0948153287
3045.28422	0.0944128931
3043.85451	0.0940088108
3042.42480	0.0935928300
3040.99509	0.0931649357
3039.56538	0.0927348658
3038.13566	0.0923120752
3036.70595	0.0918945819
3035.27624	0.0914673954
3033.84653	0.0910131782
3032.41682	0.0905282497
3030.98711	0.0900291130
3029.55740	0.0895445794
3028.12769	0.0890975818
3026.69798	0.0886928514
3025.26827	0.0883191153
3023.83856	0.0879616067
3022.40884	0.0876142755
3020.97913	0.0872801691
3019.54942	0.0869642794
3018.11971	0.0866637900
3016.69000	0.0863655284
3015.26029	0.0860503986
3013.83058	0.0857021362
3012.40087	0.0853148252
3010.97116	0.0848976523
3009.54145	0.0844735429
3008.11174	0.0840719715
3006.68202	0.0837198868
3005.25231	0.0834326446
3003.82260	0.0832086653
3002.39289	0.0830311254
3000.96318	0.0828756094
2999.53347	0.0827217549
2998.10376	0.0825623795
2996.67405	0.0824036226
2995.24434	0.0822543725
2993.81463	0.0821156502
2992.38492	0.0819804743
2990.95520	0.0818444341
2989.52549	0.0817197189
2988.09578	0.0816353336
2986.66607	0.0816212445
2985.23636	0.0816886649
2983.80665	0.0818228051
2982.37694	0.0819932297
2980.94723	0.0821697563
2979.51752	0.0823323727
2978.08781	0.0824713781
2976.65810	0.0825828537
2975.22838	0.0826673582
2973.79867	0.0827311501
2972.36896	0.0827857405
2970.93925	0.0828442499
2969.50954	0.0829137117
2968.07983	0.0829903483
2966.65012	0.0830590129
2965.22041	0.0830971599
2963.79070	0.0830822736
2962.36099	0.0830002204
2960.93128	0.0828492045
2959.50157	0.0826386139
2958.07185	0.0823815912
2956.64214	0.0820875019
2955.21243	0.0817610919
2953.78272	0.0814065635
2952.35301	0.0810360163
2950.92330	0.0806713626
2949.49359	0.0803377852
2948.06388	0.0800544471
2946.63417	0.0798269808
2945.20446	0.0796489492
2943.77475	0.0795086920
2942.34503	0.0793956444
2940.91532	0.0793032274
2939.48561	0.0792292804
2938.05590	0.0791762546
2936.62619	0.0791503787
2935.19648	0.0791550055
2933.76677	0.0791799799
2932.33706	0.0791953579
2930.90735	0.0791601613
2929.47764	0.0790430754
2928.04793	0.0788418651
2926.61821	0.0785854384
2925.18850	0.0783139095
2923.75879	0.0780511275
2922.32908	0.0777896568
2920.89937	0.0774961561
2919.46966	0.0771331266
2918.03995	0.0766781792
2916.61024	0.0761303529
2915.18053	0.0755052194
2913.75082	0.0748257488
2912.32111	0.0741185397
2910.89139	0.0734127909
2909.46168	0.0727390945
2908.03197	0.0721224546
2906.60226	0.0715739056
2905.17255	0.0710872263
2903.74284	0.0706464499
2902.31313	0.0702370405
2900.88342	0.0698540285
2899.45371	0.0694981888
2898.02400	0.0691686496
2896.59429	0.0688591972
2895.16457	0.0685629994
2893.73486	0.0682799369
2892.30515	0.0680160150
2890.87544	0.0677794516
2889.44573	0.0675747991
2888.01602	0.0674023256
2886.58631	0.0672628582
2885.15660	0.0671570301
2883.72689	0.0670841560
2882.29718	0.0670394525
2880.86747	0.0670143515
2879.43775	0.0669990033
2878.00804	0.0669810921
2876.57833	0.0669425577
2875.14862	0.0668587908
2873.71891	0.0667039827
2872.28920	0.0664624348
2870.85949	0.0661367252
2869.42978	0.0657501444
2868.00007	0.0653384030
2866.57036	0.0649362728
2865.14065	0.0645680949
2863.71093	0.0642444640
2862.28122	0.0639661178
2860.85151	0.0637294725
2859.42180	0.0635287613
2857.99209	0.0633542612
2856.56238	0.0631888658
2855.13267	0.0630089045
2853.70296	0.0627870187
2852.27325	0.0624988489
2850.84354	0.0621275343
2849.41383	0.0616690181
2847.98411	0.0611383878
2846.55440	0.0605702251
2845.12469	0.0600119568
2843.69498	0.0595068000
2842.26527	0.0590762794
2840.83556	0.0587152243
2839.40585	0.0583999529
2837.97614	0.0581046455
2836.54643	0.0578135028
2835.11672	0.0575233251
2833.68701	0.0572379753
2832.25729	0.0569634065
2830.82758	0.0567047074
2829.39787	0.0564659983
2827.96816	0.0562492236
2826.53845	0.0560538545
2825.10874	0.0558763817
2823.67903	0.0557119586
2822.24932	0.0555560142
2820.81961	0.0554045364
2819.38990	0.0552550480
2817.96019	0.0551067889
2816.53047	0.0549610779
2815.10076	0.0548207052
2813.67105	0.0546871275
2812.24134	0.0545583442
2810.81163	0.0544271357
2809.38192	0.0542847626
2807.95221	0.0541264527
2806.52250	0.0539560094
2805.09279	0.0537856035
2803.66308	0.0536297932
2802.23337	0.0534968711
2800.80366	0.0533826388
2799.37394	0.0532736741
2797.94423	0.0531572774
2796.51452	0.0530298539
2795.08481	0.0528991669
2793.65510	0.0527750030
2792.22539	0.0526590608
2790.79568	0.0525406972
2789.36597	0.0524051301
2787.93626	0.0522453152
2786.50655	0.0520663299
2785.07684	0.0518813469
2783.64712	0.0517023057
2782.21741	0.0515350848
2780.78770	0.0513808951
2779.35799	0.0512386411
2777.92828	0.0511062481
2776.49857	0.0509786978
2775.06886	0.0508494973
2773.63915	0.0507146046
2772.20944	0.0505765826
2770.77973	0.0504417159
2769.35002	0.0503144488
2767.92030	0.0501924492
2766.49059	0.0500687100
2765.06088	0.0499375723
2763.63117	0.0497999154
2762.20146	0.0496607311
2760.77175	0.0495243818
2759.34204	0.0493908264
2757.91233	0.0492578074
2756.48262	0.0491267964
2755.05291	0.0490055382
2753.62320	0.0489026196
2752.19348	0.0488178283
2750.76377	0.0487367325
2749.33406	0.0486362800
2747.90435	0.0484997295
2746.47464	0.0483272821
2745.04493	0.0481374077
2743.61522	0.0479544103
2742.18551	0.0477933362
2740.75580	0.0476527438
2739.32609	0.0475203134
2737.89638	0.0473835655
2736.46666	0.0472403355
2735.03695	0.0470994599
2733.60724	0.0469751880
2732.17753	0.0468760058
2730.74782	0.0467985310
2729.31811	0.0467258543
2727.88840	0.0466367304
2726.45869	0.0465178341
2725.02898	0.0463703088
2723.59927	0.0462080650
2722.16956	0.0460468307
2720.73984	0.0458944328
2719.31013	0.0457501672
2717.88042	0.0456108972
2716.45071	0.0454769880
2715.02100	0.0453534946
2713.59129	0.0452436805
2712.16158	0.0451439507
2710.73187	0.0450445563
2709.30216	0.0449357405
2707.87245	0.0448151827
2706.44274	0.0446890369
2705.01302	0.0445663705
2703.58331	0.0444529131
2702.15360	0.0443473682
2700.72389	0.0442449749
2699.29418	0.0441431515
2697.86447	0.0440442711
2696.43476	0.0439519472
2695.00505	0.0438661128
2693.57534	0.0437802374
2692.14563	0.0436867662
2690.71592	0.0435830988
2689.28620	0.0434764214
2687.85649	0.0433798395
2686.42678	0.0433043577
2684.99707	0.0432510488
2683.56736	0.0432094149
2682.13765	0.0431612357
2680.70794	0.0430896804
2679.27823	0.0429871231
2677.84852	0.0428585932
2676.41881	0.0427192748
2674.98910	0.0425871685
2673.55938	0.0424754284
2672.12967	0.0423870608
2670.69996	0.0423148610
2669.27025	0.0422466099
2667.84054	0.0421707258
2666.41083	0.0420815907
2664.98112	0.0419808440
2663.55141	0.0418752991
2662.12170	0.0417724624
2660.69199	0.0416771695
2659.26228	0.0415905006
2657.83256	0.0415116847
2656.40285	0.0414388590
2654.97314	0.0413693823
2653.54343	0.0412986018
2652.11372	0.0412208624
2650.68401	0.0411329754
2649.25430	0.0410371423
2647.82459	0.0409411304
2646.39488	0.0408538990
2644.96517	0.0407809578
2643.53546	0.0407229550
2642.10575	0.0406768695
2640.67603	0.0406376123
2639.24632	0.0405983590
2637.81661	0.0405508131
2636.38690	0.0404869020
2634.95719	0.0404050164
2633.52748	0.0403127223
2632.09777	0.0402248800
2630.66806	0.0401556194
2629.23835	0.0401093140
2627.80864	0.0400785096
2626.37893	0.0400495008
2624.94921	0.0400124267
2623.51950	0.0399687476
2622.08979	0.0399286449
2620.66008	0.0399025381
2619.23037	0.0398914441
2617.80066	0.0398852006
2616.37095	0.0398694798
2614.94124	0.0398371331
2613.51153	0.0397927910
2612.08182	0.0397490188
2610.65211	0.0397160575
2609.22239	0.0396945290
2607.79268	0.0396758914
2606.36297	0.0396508500
2604.93326	0.0396177545
2603.50355	0.0395839252
2602.07384	0.0395606160
2600.64413	0.0395538397
2599.21442	0.0395584591
2597.78471	0.0395617224
2596.35500	0.0395513996
2594.92529	0.0395248048
2593.49557	0.0394900180
2592.06586	0.0394596271
2590.63615	0.0394414291
2589.20644	0.0394344293
2587.77673	0.0394303463
2586.34702	0.0394205935
2584.91731	0.0394016020
2583.48760	0.0393755548
2582.05789	0.0393480919
2580.62818	0.0393261015
2579.19847	0.0393141992
2577.76875	0.0393141434
2576.33904	0.0393239483
2574.90933	0.0393395610
2573.47962	0.0393556878
2572.04991	0.0393676497
2570.62020	0.0393728055
2569.19049	0.0393720977
2567.76078	0.0393713340
2566.33107	0.0393793546
2564.90136	0.0394034162
2563.47165	0.0394439250
2562.04193	0.0394937620
2560.61222	0.0395421274
2559.18251	0.0395815410
2557.75280	0.0396109186
2556.32309	0.0396340340
2554.89338	0.0396559834
2553.46367	0.0396809988
2552.03396	0.0397124551
2550.60425	0.0397531576
2549.17454	0.0398037694
2547.74483	0.0398612805
2546.31511	0.0399191119
2544.88540	0.0399695411
2543.45569	0.0400089361
2542.02598	0.0400398187
2540.59627	0.0400700532
2539.16656	0.0401087739
2537.73685	0.0401617251
2536.30714	0.0402276032
2534.87743	0.0402995162
2533.44772	0.0403685123
2532.01801	0.0404283702
2530.58829	0.0404758193
2529.15858	0.0405103453
2527.72887	0.0405327938
2526.29916	0.0405461229
2524.86945	0.0405570641
2523.43974	0.0405752249
2522.01003	0.0406089351
2520.58032	0.0406612940
2519.15061	0.0407277606
2517.72090	0.0407994688
2516.29119	0.0408684574
2514.86147	0.0409320854
2513.43176	0.0409930721
2512.00205	0.0410565734
2510.57234	0.0411247797
2509.14263	0.0411944203
2507.71292	0.0412580669
2506.28321	0.0413105860
2504.85350	0.0413532369
2503.42379	0.0413934700
2501.99408	0.0414389744
2500.56437	0.0414905772
2499.13465	0.0415435284
2497.70494	0.0415930375
2496.27523	0.0416411571
2494.84552	0.0416964330
2493.41581	0.0417664759
2491.98610	0.0418508686
2490.55639	0.0419395007
2489.12668	0.0420189090
2487.69697	0.0420811065
2486.26726	0.0421279967
2484.83755	0.0421693251
2483.40784	0.0422147140
2481.97812	0.0422679782
2480.54841	0.0423251055
2479.11870	0.0423795544
2477.68899	0.0424275026
2476.25928	0.0424713157
2474.82957	0.0425173342
2473.39986	0.0425706394
2471.97015	0.0426315144
2470.54044	0.0426962264
2469.11073	0.0427592658
2467.68102	0.0428170525
2466.25130	0.0428679362
2464.82159	0.0429135375
2463.39188	0.0429576896
2461.96217	0.0430042446
2460.53246	0.0430552922
2459.10275	0.0431075729
2457.67304	0.0431547463
2456.24333	0.0431916565
2454.81362	0.0432193950
2453.38391	0.0432457589
2451.95420	0.0432802178
2450.52448	0.0433282964
2449.09477	0.0433881916
2447.66506	0.0434524715
2446.23535	0.0435132161
2444.80564	0.0435662121
2443.37593	0.0436132066
2441.94622	0.0436584577
2440.51651	0.0437056012
2439.08680	0.0437534973
2437.65709	0.0437969007
2436.22738	0.0438301153
2434.79766	0.0438505337
2433.36795	0.0438599549
2431.93824	0.0438638777
2430.50853	0.0438681468
2429.07882	0.0438785106
2427.64911	0.0438987017
2426.21940	0.0439293459
2424.78969	0.0439669825
2423.35998	0.0440040492
2421.93027	0.0440333858
2420.50056	0.0440521799
2419.07084	0.0440645255
2417.64113	0.0440779626
2416.21142	0.0440974198
2414.78171	0.0441203974
2413.35200	0.0441386811
2411.92229	0.0441446416
2410.49258	0.0441389382
2409.06287	0.0441317745
2407.63316	0.0441363007
2406.20345	0.0441603735
2404.77374	0.0442000926
2403.34402	0.0442427956
2401.91431	0.0442747548
2400.48460	0.0442885160
2399.05489	0.0442849882
2397.62518	0.0442712866
2396.19547	0.0442554392
2394.76576	0.0442440026
2393.33605	0.0442395024
2391.90634	0.0442411080
2390.47663	0.0442456342
2389.04692	0.0442499071
2387.61720	0.0442519709
2386.18749	0.0442514531
2384.75778	0.0442464389
2383.32807	0.0442324504
2381.89836	0.0442014411
2380.46865	0.0441432372
2379.03894	0.0440491438
2377.60923	0.0439156853
2376.17952	0.0437486023
2374.74981	0.0435613766
2373.32010	0.0433707424
2371.89038	0.0431869105
2370.46067	0.0430072732
2369.03096	0.0428194553
2367.60125	0.0426123254
2366.17154	0.0423858315
2364.74183	0.0421542376
2363.31212	0.0419400707
2361.88241	0.0417670757
2360.45270	0.0416560844
2359.02299	0.0416225791
2357.59328	0.0416777395
2356.16356	0.0418274403
2354.73385	0.0420639366
2353.30414	0.0423578359
2351.87443	0.0426644124
2350.44472	0.0429375991
2349.01501	0.0431410521
2347.58530	0.0432495326
2346.15559	0.0432520211
2344.72588	0.0431566313
2343.29617	0.0429961570
2341.86646	0.0428189114
2340.43674	0.0426672101
2339.00703	0.0425623879
2337.57732	0.0425103679
2336.14761	0.0425082557
2334.71790	0.0425446555
2333.28819	0.0426000208
2331.85848	0.0426548459
2330.42877	0.0426995419
2328.99906	0.0427382700
2327.56935	0.0427819751
2326.13964	0.0428380817
2324.70993	0.0429056808
2323.28021	0.0429778360
2321.85050	0.0430475175
2320.42079	0.0431122072
2318.99108	0.0431763902
2317.56137	0.0432496183
2316.13166	0.0433423668
2314.70195	0.0434598550
2313.27224	0.0435965210
2311.84253	0.0437362902
2310.41282	0.0438574925
2308.98311	0.0439439565
2307.55339	0.0439926200
2306.12368	0.0440140478
2304.69397	0.0440239049
2303.26426	0.0440352745
2301.83455	0.0440514907
2300.40484	0.0440674499
2298.97513	0.0440752991
2297.54542	0.0440717749
2296.11571	0.0440625511
2294.68600	0.0440590829
2293.25629	0.0440712906
2291.82657	0.0440997966
2290.39686	0.0441351570
2288.96715	0.0441636108
2287.53744	0.0441767648
2286.10773	0.0441750735
2284.67802	0.0441653319
2283.24831	0.0441530384
2281.81860	0.0441386513
2280.38889	0.0441189967
2278.95918	0.0440916307
2277.52947	0.0440586545
2276.09975	0.0440257937
2274.67004	0.0439992100
2273.24033	0.0439816490
2271.81062	0.0439713076
2270.38091	0.0439628884
2268.95120	0.0439519174
2267.52149	0.0439380817
2266.09178	0.0439262539
2264.66207	0.0439236462
2263.23236	0.0439346470
2261.80265	0.0439579338
2260.37293	0.0439882390
2258.94322	0.0440198928
2257.51351	0.0440503173
2256.08380	0.0440796837
2254.65409	0.0441077054
2253.22438	0.0441310853
2251.79467	0.0441431217
2250.36496	0.0441374779
2248.93525	0.0441114008
2247.50554	0.0440678522
2246.07583	0.0440148227
2244.64611	0.0439630598
2243.21640	0.0439232178
2241.78669	0.0439027697
2240.35698	0.0439041145
2238.92727	0.0439226739
2237.49756	0.0439484790
2236.06785	0.0439707935
2234.63814	0.0439832546
2233.20843	0.0439866632
2231.77872	0.0439866632
2230.34901	0.0439880379
2228.91929	0.0439913310
2227.48958	0.0439939089
2226.05987	0.0439929366
2224.63016	0.0439877212
2223.20045	0.0439782701
2221.77074	0.0439629443
2220.34103	0.0439396873
2218.91132	0.0439099856
2217.48161	0.0438813195
2216.05190	0.0438651368
2214.62219	0.0438703224
2213.19247	0.0438960679
2211.76276	0.0439305790
2210.33305	0.0439568162
2208.90334	0.0439613685
2207.47363	0.0439402610
2206.04392	0.0439001061
2204.61421	0.0438528247
2203.18450	0.0438095294
2201.75479	0.0437768586
2200.32508	0.0437561311
2198.89537	0.0437457375
2197.46565	0.0437442772
2196.03594	0.0437509194
2194.60623	0.0437639169
2193.17652	0.0437784046
2191.74681	0.0437857620
2190.31710	0.0437774882
2188.88739	0.0437496901
2187.45768	0.0437061749
2186.02797	0.0436568260
2184.59826	0.0436116867
2183.16855	0.0435769148
2181.73883	0.0435547642
2180.30912	0.0435455814
2178.87941	0.0435493588
2177.44970	0.0435646102
2176.01999	0.0435862467
2174.59028	0.0436059646
2173.16057	0.0436142907
2171.73086	0.0436048470
2170.30115	0.0435761139
2168.87144	0.0435331911
2167.44173	0.0434854887
2166.01202	0.0434445478
2164.58230	0.0434181727
2163.15259	0.0434083007
2161.72288	0.0434103310
2160.29317	0.0434166268
2158.86346	0.0434208028
2157.43375	0.0434192568
2156.00404	0.0434112474
2154.57433	0.0433976874
2153.14462	0.0433793254
2151.71491	0.0433553532
2150.28520	0.0433226302
2148.85548	0.0432780460
2147.42577	0.0432219394
2145.99606	0.0431610942
2144.56635	0.0431070328
2143.13664	0.0430704989
2141.70693	0.0430554897
2140.27722	0.0430584922
2138.84751	0.0430724137
2137.41780	0.0430895090
2135.98809	0.0431033149
2134.55838	0.0431082621
2133.12866	0.0431005433
2131.69895	0.0430812761
2130.26924	0.0430565476
2128.83953	0.0430347696
2127.40982	0.0430194214
2125.98011	0.0430071019
2124.55040	0.0429903269
2123.12069	0.0429643467
2121.69098	0.0429313406
2120.26127	0.0428984240
2118.83156	0.0428713635
2117.40184	0.0428505354
2115.97213	0.0428320244
2114.54242	0.0428131409
2113.11271	0.0427964851
2111.68300	0.0427885167
2110.25329	0.0427949131
2108.82358	0.0428145677
2107.39387	0.0428395942
2105.96416	0.0428589098
2104.53445	0.0428650789
2103.10474	0.0428568237
2101.67502	0.0428397954
2100.24531	0.0428213663
2098.81560	0.0428067967
2097.38589	0.0427969135
2095.95618	0.0427888855
2094.52647	0.0427792594
2093.09676	0.0427658632
2091.66705	0.0427486114
2090.23734	0.0427290425
2088.80763	0.0427076817
2087.37792	0.0426835194
2085.94820	0.0426542163
2084.51849	0.0426183231
2083.08878	0.0425786339
2081.65907	0.0425425991
2080.22936	0.0425189920
2078.79965	0.0425127111
2077.36994	0.0425205603
2075.94023	0.0425324664
2074.51052	0.0425376035
2073.08081	0.0425309539
2071.65110	0.0425153077
2070.22138	0.0424979776
2068.79167	0.0424854197
2067.36196	0.0424800515
2065.93225	0.0424808227
2064.50254	0.0424844213
2063.07283	0.0424872190
2061.64312	0.0424863622
2060.21341	0.0424804501
2058.78370	0.0424702615
2057.35399	0.0424583293
2055.92428	0.0424463674
2054.49456	0.0424339250
2053.06485	0.0424184278
2051.63514	0.0423980765
2050.20543	0.0423739329
2048.77572	0.0423496179
2047.34601	0.0423285551
2045.91630	0.0423129760
2044.48659	0.0423051007
2043.05688	0.0423084386
2041.62717	0.0423246771
2040.19746	0.0423495322
2038.76774	0.0423711911
2037.33803	0.0423768423
2035.90832	0.0423614308
2034.47861	0.0423314683
2033.04890	0.0422987379
2031.61919	0.0422713161
2030.18948	0.0422483794
2028.75977	0.0422261804
2027.33006	0.0422043875
2025.90035	0.0421881527
2024.47064	0.0421827324
2023.04092	0.0421873853
2021.61121	0.0421953723
2020.18150	0.0421991386
2018.75179	0.0421953984
2017.32208	0.0421870425
2015.89237	0.0421801955
2014.46266	0.0421811081
2013.03295	0.0421923175
2011.60324	0.0422110632
2010.17353	0.0422304906
2008.74382	0.0422421880
2007.31411	0.0422420427
2005.88439	0.0422334000
2004.45468	0.0422255844
2003.02497	0.0422288626
2001.59526	0.0422480926
2000.16555	0.0422803052
1998.73584	0.0423168279
1997.30613	0.0423483625
1995.87642	0.0423692241
1994.44671	0.0423798673
1993.01700	0.0423856340
1991.58729	0.0423934534
1990.15757	0.0424091779
1988.72786	0.0424363799
1987.29815	0.0424749702
1985.86844	0.0425213613
1984.43873	0.0425686948
1983.00902	0.0426093861
1981.57931	0.0426376276
1980.14960	0.0426522456
1978.71989	0.0426564738
1977.29018	0.0426557884
1975.86047	0.0426561609
1974.43075	0.0426618122
1973.00104	0.0426742099
1971.57133	0.0426932573
1970.14162	0.0427190177
1968.71191	0.0427525789
1967.28220	0.0427944586
1965.85249	0.0428416505
1964.42278	0.0428871065
1962.99307	0.0429248847
1961.56336	0.0429565758
1960.13365	0.0429908969
1958.70393	0.0430371687
1957.27422	0.0430967957
1955.84451	0.0431603491
1954.41480	0.0432138741
1952.98509	0.0432478189
1951.55538	0.0432607420
1950.12567	0.0432583988
1948.69596	0.0432501622
1947.26625	0.0432470441
1945.83654	0.0432598852
1944.40683	0.0432971194
1942.97711	0.0433610752
1941.54740	0.0434475504
1940.11769	0.0435477272
1938.68798	0.0436524749
1937.25827	0.0437546708
1935.82856	0.0438496172
1934.39885	0.0439338461
1932.96914	0.0440039374
1931.53943	0.0440560468
1930.10972	0.0440877341
1928.68001	0.0441005416
1927.25029	0.0441016033
1925.82058	0.0441012867
1924.39087	0.0441085361
1922.96116	0.0441288799
1921.53145	0.0441654176
1920.10174	0.0442212150
1918.67203	0.0442962572
1917.24232	0.0443836376
1915.81261	0.0444702618
1914.38290	0.0445446000
1912.95319	0.0446034595
1911.52347	0.0446527712
1910.09376	0.0447013155
1908.66405	0.0447554924
1907.23434	0.0448177941
1905.80463	0.0448874533
1904.37492	0.0449617766
1902.94521	0.0450365730
1901.51550	0.0451081060
1900.08579	0.0451761745
1898.65608	0.0452435687
1897.22637	0.0453127772
1895.79665	0.0453815721
1894.36694	0.0454443656
1892.93723	0.0454969965
1891.50752	0.0455420688
1890.07781	0.0455892757
1888.64810	0.0456502028
1887.21839	0.0457305238
1885.78868	0.0458264798
1884.35897	0.0459286422
1882.92926	0.0460277498
1881.49955	0.0461190790
1880.06983	0.0462029129
1878.64012	0.0462797917
1877.21041	0.0463472679
1875.78070	0.0464002676
1874.35099	0.0464354381
1872.92128	0.0464551412
1871.49157	0.0464691706
1870.06186	0.0464951880
1868.63215	0.0465540513
1867.20244	0.0466585197
1865.77273	0.0468024239
1864.34301	0.0469631292
1862.91330	0.0471159630
1861.48359	0.0472481847
1860.05388	0.0473626927
1858.62417	0.0474704988
1857.19446	0.0475789122
1855.76475	0.0476859398
1854.33504	0.0477863997
1852.90533	0.0478787087
1851.47562	0.0479645282
1850.04591	0.0480436608
1848.61619	0.0481116436
1847.18648	0.0481664762
1845.75677	0.0482167453
1844.32706	0.0482795164
1842.89735	0.0483678505
1841.46764	0.0484807976
1840.03793	0.0486089773
1838.60822	0.0487416275
1837.17851	0.0488684028
1835.74880	0.0489773117
1834.31909	0.0490584262
1832.88938	0.0491116978
1831.45966	0.0491523370
1830.02995	0.0492057912
1828.60024	0.0492944866
1827.17053	0.0494246185
1825.74082	0.0495856591
1824.31111	0.0497601144
1822.88140	0.0499341451
1821.45169	0.0501020029
1820.02198	0.0502632074
1818.59227	0.0504165106
1817.16256	0.0505554117
1815.73284	0.0506717525
1814.30313	0.0507645309
1812.87342	0.0508471988
1811.44371	0.0509422235
1810.01400	0.0510645807
1808.58429	0.0512110293
1807.15458	0.0513648093
1805.72487	0.0515110679
1804.29516	0.0516455397
1802.86545	0.0517731681
1801.43574	0.0519006886
1800.00602	0.0520318374
1798.57631	0.0521644242
1797.14660	0.0522924401
1795.71689	0.0524126068
1794.28718	0.0525334217
1792.85747	0.0526769459
1791.42776	0.0528630577
1789.99805	0.0530878566
1788.56834	0.0533229597
1787.13863	0.0535390936
1785.70892	0.0537253693
1784.27920	0.0538896844
1782.84949	0.0540461205
1781.41978	0.0542034283
1779.99007	0.0543613546
1778.56036	0.0545161702
1777.13065	0.0546653122
1775.70094	0.0548100434
1774.27123	0.0549595505
1772.84152	0.0551331230
1771.41181	0.0553499870
1769.98210	0.0556082651
1768.55238	0.0558814444
1767.12267	0.0561415702
1765.69296	0.0563805439
1764.26325	0.0566107705
1762.83354	0.0568535104
1761.40383	0.0571277738
1759.97412	0.0574425347
1758.54441	0.0577936321
1757.11470	0.0581639223
1755.68499	0.0585305616
1754.25528	0.0588784777
1752.82556	0.0592127852
1751.39585	0.0595583990
1749.96614	0.0599402748
1748.53643	0.0603600219
1747.10672	0.0607990809
1745.67701	0.0612452924
1744.24730	0.0617024936
1742.81759	0.0621743388
1741.38788	0.0626457036
1739.95817	0.0630894825
1738.52846	0.0634925663
1737.09874	0.0638757870
1735.66903	0.0642899051
1734.23932	0.0647876486
1732.80961	0.0653862730
1731.37990	0.0660560951
1729.95019	0.0667532161
1728.52048	0.0674545988
1727.09077	0.0681592375
1725.66106	0.0688716918
1724.23135	0.0695905164
1722.80164	0.0703107119
1721.37192	0.0710403696
1719.94221	0.0718215853
1718.51250	0.0727270022
1717.08279	0.0737982392
1715.65308	0.0749678537
1714.22337	0.0760994107
1712.79366	0.0771163404
1711.36395	0.0780396312
1709.93424	0.0789335668
1708.50453	0.0798566267
1707.07482	0.0808450431
1705.64510	0.0819241703
1704.21539	0.0831346214
1702.78568	0.0845516622
1701.35597	0.0862739831
1699.92626	0.0883578807
1698.49655	0.0907165110
1697.06684	0.0931113660
1695.63713	0.0953076780
1694.20742	0.0972162783
1692.77771	0.0988766104
1691.34800	0.1003763750
1689.91828	0.1018130407
1688.48857	0.1033011302
1687.05886	0.1049823239
1685.62915	0.1069737524
1684.19944	0.1092220470
1682.76973	0.1114531979
1681.34002	0.1134115383
1679.91031	0.1150785536
1678.48060	0.1165995747
1677.05089	0.1181276366
1675.62118	0.1197465956
1674.19147	0.1214733869
1672.76175	0.1232997328
1671.33204	0.1252182871
1669.90233	0.1271953881
1668.47262	0.1291506141
1667.04291	0.1310081780
1665.61320	0.1327620000
1664.18349	0.1344593763
1662.75378	0.1361144483
1661.32407	0.1376476884
1659.89436	0.1389271468
1658.46465	0.1398510784
1657.03493	0.1403655112
1655.60522	0.1404219717
1654.17551	0.1399761140
1652.74580	0.1390835494
1651.31609	0.1379440129
1649.88638	0.1367278099
1648.45667	0.1354501247
1647.02696	0.1340800375
1645.59725	0.1326744109
1644.16754	0.1313549131
1642.73783	0.1301807463
1641.30811	0.1290866733
1639.87840	0.1279240698
1638.44869	0.1265385002
1637.01898	0.1248709187
1635.58927	0.1230472475
1634.15956	0.1212967411
1632.72985	0.1197215244
1631.30014	0.1182248294
1629.87043	0.1166253090
1628.44072	0.1147590876
1627.01101	0.1125309542
1625.58129	0.1099589020
1624.15158	0.1071824357
1622.72187	0.1043769270
1621.29216	0.1016277596
1619.86245	0.0988961458
1618.43274	0.0961088985
1617.00303	0.0932948813
1615.57332	0.0906264633
1614.14361	0.0882888138
1612.71390	0.0863219798
1611.28419	0.0846244395
1609.85447	0.0830743089
1608.42476	0.0816217437
1606.99505	0.0802950859
1605.56534	0.0791412815
1604.13563	0.0781699643
1602.70592	0.0773528218
1601.27621	0.0766574517
1599.84650	0.0760651156
1598.41679	0.0755621418
1596.98708	0.0751339123
1595.55737	0.0747742727
1594.12765	0.0744959563
1592.69794	0.0743194744
1591.26823	0.0742506459
1589.83852	0.0742743537
1588.40881	0.0743698850
1586.97910	0.0745270252
1585.54939	0.0747423843
1584.11968	0.0750077814
1582.68997	0.0753096715
1581.26026	0.0756440014
1579.83055	0.0760281384
1578.40083	0.0764919519
1576.97112	0.0770492628
1575.54141	0.0776726231
1574.11170	0.0783129185
1572.68199	0.0789472908
1571.25228	0.0795956850
1569.82257	0.0802908540
1568.39286	0.0810353607
1566.96315	0.0817888379
1565.53344	0.0825009272
1564.10373	0.0831570625
1562.67401	0.0838030130
1561.24430	0.0845524743
1559.81459	0.0855549946
1558.38488	0.0868463367
1556.95517	0.0882123783
1555.52546	0.0893818513
1554.09575	0.0902661309
1552.66604	0.0909016281
1551.23633	0.0913272351
1549.80662	0.0915510952
1548.37691	0.0915695056
1546.94719	0.0913834572
1545.51748	0.0909887254
1544.08777	0.0903527886
1542.65806	0.0894335657
1541.22835	0.0882826671
1539.79864	0.0871110111
1538.36893	0.0861117169
1536.93922	0.0852799490
1535.50951	0.0844931379
1534.07980	0.0836520642
1532.65009	0.0827346891
1531.22037	0.0817750245
1529.79066	0.0808109641
1528.36095	0.0798472017
1526.93124	0.0788599923
1525.50153	0.0778273046
1524.07182	0.0767526776
1522.64211	0.0756732747
1521.21240	0.0746439099
1519.78269	0.0737060532
1518.35298	0.0728598759
1516.92327	0.0720665902
1515.49356	0.0712752044
1514.06384	0.0704460815
1512.63413	0.0695429072
1511.20442	0.0685054958
1509.77471	0.0672432706
1508.34500	0.0657193363
1506.91529	0.0641134456
1505.48558	0.0627749935
1504.05587	0.0618701242
1502.62616	0.0612758435
1501.19645	0.0607896708
1499.76674	0.0602776036
1498.33702	0.0597048588
1496.90731	0.0591191687
1495.47760	0.0585897192
1494.04789	0.0581413731
1492.61818	0.0577507876
1491.18847	0.0573939048
1489.75876	0.0570851117
1488.32905	0.0568726324
1486.89934	0.0567911081
1485.46963	0.0568242408
1484.03992	0.0569225922
1482.61020	0.0570418052
1481.18049	0.0571628511
1479.75078	0.0572904870
1478.32107	0.0574427135
1476.89136	0.0576428473
1475.46165	0.0579165146
1474.03194	0.0582797453
1472.60223	0.0587115213
1471.17252	0.0591473468
1469.74281	0.0595202483
1468.31310	0.0598007143
1466.88338	0.0599972159
1465.45367	0.0601373427
1464.02396	0.0602471493
1462.59425	0.0603385158
1461.16454	0.0604109764
1459.73483	0.0604651533
1458.30512	0.0605137721
1456.87541	0.0605719499
1455.44570	0.0606329031
1454.01599	0.0606649928
1452.58628	0.0606387369
1451.15656	0.0605432913
1449.72685	0.0603851564
1448.29714	0.0601854771
1446.86743	0.0599741824
1445.43772	0.0597757921
1444.00801	0.0595946535
1442.57830	0.0594134443
1441.14859	0.0592040345
1439.71888	0.0589422770
1438.28917	0.0586256832
1436.85946	0.0582875311
1435.42974	0.0579891056
1434.00003	0.0577828698
1432.57032	0.0576847680
1431.14061	0.0576817803
1429.71090	0.0577528253
1428.28119	0.0578801632
1426.85148	0.0580504686
1425.42177	0.0582530461
1423.99206	0.0584805645
1422.56235	0.0587316714
1421.13264	0.0590132922
1419.70292	0.0593342930
1418.27321	0.0596941672
1416.84350	0.0600744076
1415.41379	0.0604488514
1413.98408	0.0607989915
1412.55437	0.0611177087
1411.12466	0.0614034124
1409.69495	0.0616547279
1408.26524	0.0618705153
1406.83553	0.0620523654
1405.40582	0.0622025058
1403.97610	0.0623187236
1402.54639	0.0623907708
1401.11668	0.0624048486
1399.68697	0.0623510554
1398.25726	0.0622298084
1396.82755	0.0620534979
1395.39784	0.0618421882
1393.96813	0.0616137944
1392.53842	0.0613732114
1391.10871	0.0611121058
1389.67900	0.0608169176
1388.24928	0.0604824424
1386.81957	0.0601200983
1385.38986	0.0597543456
1383.96015	0.0594050139
1382.53044	0.0590754785
1381.10073	0.0587569512
1379.67102	0.0584420934
1378.24131	0.0581348613
1376.81160	0.0578506179
1375.38189	0.0576098897
1373.95218	0.0574282072
1372.52246	0.0573087409
1371.09275	0.0572389178
1369.66304	0.0571951829
1368.23333	0.0571526326
1366.80362	0.0570950881
1365.37391	0.0570229702
1363.94420	0.0569518097
1362.51449	0.0569032617
1361.08478	0.0568898953
1359.65507	0.0569096357
1358.22536	0.0569521040
1356.79565	0.0570082106
1355.36593	0.0570724756
1353.93622	0.0571388751
1352.50651	0.0571977235
1351.07680	0.0572376214
1349.64709	0.0572509989
1348.21738	0.0572384186
1346.78767	0.0572074689
1345.35796	0.0571681634
1343.92825	0.0571299866
1342.49854	0.0571027063
1341.06883	0.0570994280
1339.63911	0.0571360700
1338.20940	0.0572220571
1336.77969	0.0573510379
1335.34998	0.0575021356
1333.92027	0.0576526932
1332.49056	0.0577913858
1331.06085	0.0579217784
1329.63114	0.0580568574
1328.20143	0.0582089983
1326.77172	0.0583819486
1325.34201	0.0585701950
1323.91229	0.0587632954
1322.48258	0.0589517653
1321.05287	0.0591300838
1319.62316	0.0592958033
1318.19345	0.0594475791
1316.76374	0.0595839955
1315.33403	0.0597060174
1313.90432	0.0598195195
1312.47461	0.0599362031
1311.04490	0.0600663498
1309.61519	0.0602120906
1308.18547	0.0603640936
1306.75576	0.0605069585
1305.32605	0.0606306419
1303.89634	0.0607382543
1302.46663	0.0608438067
1301.03692	0.0609630272
1299.60721	0.0611028112
1298.17750	0.0612575114
1296.74779	0.0614118800
1295.31808	0.0615487657
1293.88837	0.0616568439
1292.45865	0.0617347807
1291.02894	0.0617900789
1289.59923	0.0618355311
1288.16952	0.0618828721
1286.73981	0.0619395003
1285.31010	0.0620074831
1283.88039	0.0620855428
1282.45068	0.0621702448
1281.02097	0.0622577742
1279.59126	0.0623457357
1278.16155	0.0624345839
1276.73183	0.0625284761
1275.30212	0.0626350641
1273.87241	0.0627628490
1272.44270	0.0629182979
1271.01299	0.0631049573
1269.58328	0.0633231401
1268.15357	0.0635717288
1266.72386	0.0638507530
1265.29415	0.0641616359
1263.86444	0.0645064041
1262.43473	0.0648856536
1261.00501	0.0652962178
1259.57530	0.0657303631
1258.14559	0.0661769658
1256.71588	0.0666215271
1255.28617	0.0670474544
1253.85646	0.0674373358
1252.42675	0.0677752718
1250.99704	0.0680493787
1249.56733	0.0682516471
1248.13762	0.0683781877
1246.70791	0.0684278533
1245.27819	0.0684024617
1243.84848	0.0683069900
1242.41877	0.0681484863
1240.98906	0.0679340363
1239.55935	0.0676718056
1238.12964	0.0673737526
1236.69993	0.0670559704
1235.27022	0.0667370930
1233.84051	0.0664307550
1232.41080	0.0661410615
1230.98109	0.0658618063
1229.55137	0.0655823350
1228.12166	0.0652933866
1226.69195	0.0649896637
1225.26224	0.0646699816
1223.83253	0.0643358901
1222.40282	0.0639929026
1220.97311	0.0636500120
1219.54340	0.0633172691
1218.11369	0.0630009174
1216.68398	0.0627015680
1215.25427	0.0624159351
1213.82455	0.0621429756
1212.39484	0.0618869327
1210.96513	0.0616551153
1209.53542	0.0614540763
1208.10571	0.0612860098
1206.67600	0.0611512326
1205.24629	0.0610523671
1203.81658	0.0609945431
1202.38687	0.0609831624
1200.95716	0.0610195361
1199.52745	0.0611000098
1198.09774	0.0612207018
1196.66802	0.0613821261
1195.23831	0.0615898706
1193.80860	0.0618494712
1192.37889	0.0621604472
1190.94918	0.0625150204
1189.51947	0.0629027933
1188.08976	0.0633158907
1186.66005	0.0637516603
1185.23034	0.0642109662
1183.80063	0.0646955222
1182.37092	0.0652068108
1180.94120	0.0657472238
1179.51149	0.0663202181
1178.08178	0.0669283047
1176.65207	0.0675712898
1175.22236	0.0682442561
1173.79265	0.0689366162
1172.36294	0.0696339980
1170.93323	0.0703233778
1169.50352	0.0710005239
1168.07381	0.0716743395
1166.64410	0.0723623112
1165.21438	0.0730778798
1163.78467	0.0738201141
1162.35496	0.0745742917
1160.92525	0.0753237158
1159.49554	0.0760616288
1158.06583	0.0767915696
1156.63612	0.0775188357
1155.20641	0.0782425776
1153.77670	0.0789576918
1152.34699	0.0796631575
1150.91728	0.0803671554
1149.48756	0.0810829103
1148.05785	0.0818213075
1146.62814	0.0825869516
1145.19843	0.0833823979
1143.76872	0.0842138007
1142.33901	0.0850911364
1140.90930	0.0860230699
1139.47959	0.0870127305
1138.04988	0.0880592167
1136.62017	0.0891631767
1135.19046	0.0903314352
1133.76074	0.0915734693
1132.33103	0.0928933397
1130.90132	0.0942810103
1129.47161	0.0957130045
1128.04190	0.0971599445
1126.61219	0.0985987857
1125.18248	0.1000194028
1123.75277	0.1014237851
1122.32306	0.1028190553
1120.89335	0.1042118073
1119.46364	0.1056056693
1118.03392	0.1070009768
1116.60421	0.1083921120
1115.17450	0.1097656116
1113.74479	0.1111041233
1112.31508	0.1123952344
1110.88537	0.1136386022
1109.45566	0.1148423702
1108.02595	0.1160092205
1106.59624	0.1171273366
1105.16653	0.1181730330
1103.73682	0.1191231012
1102.30710	0.1199661121
1100.87739	0.1207039729
1099.44768	0.1213470548
1098.01797	0.1219103411
1096.58826	0.1224108338
1095.15855	0.1228626445
1093.72884	0.1232684404
1092.29913	0.1236167327
1090.86942	0.1238871068
1089.43971	0.1240613982
1088.01000	0.1241313592
1086.58028	0.1240958124
1085.15057	0.1239508092
1083.72086	0.1236837357
1082.29115	0.1232758686
1080.86144	0.1227135286
1079.43173	0.1219983697
1078.00202	0.1211506873
1076.57231	0.1202047169
1075.14260	0.1191976219
1073.71289	0.1181569993
1072.28318	0.1170918792
1070.85346	0.1159896776
1069.42375	0.1148226112
1067.99404	0.1135622710
1066.56433	0.1121938527
1065.13462	0.1107226312
1063.70491	0.1091663986
1062.27520	0.1075408086
1060.84549	0.1058497950
1059.41578	0.1040875986
1057.98607	0.1022503302
1056.55636	0.1003453955
1055.12664	0.0983912349
1053.69693	0.0964109227
1052.26722	0.0944267586
1050.83751	0.0924601406
1049.40780	0.0905339271
1047.97809	0.0886698663
1046.54838	0.0868824720
1045.11867	0.0851745605
1043.68896	0.0835410058
1042.25925	0.0819773525
1040.82954	0.0804859102
1039.39983	0.0790739432
1037.97011	0.0777462721
1036.54040	0.0764997303
1035.11069	0.0753245726
1033.68098	0.0742123798
1032.25127	0.0731602758
1030.82156	0.0721715763
1029.39185	0.0712516308
1027.96214	0.0704052225
1026.53243	0.0696340874
1025.10272	0.0689369142
1023.67301	0.0683094710
1022.24329	0.0677476525
1020.81358	0.0672530606
1019.38387	0.0668393746
1017.95416	0.0665329695
1016.52445	0.0663653985
1015.09474	0.0663603321
1013.66503	0.0665221959
1012.23532	0.0668350905
1010.80561	0.0672734305
1009.37590	0.0678152144
1007.94619	0.0684496760
1006.51647	0.0691743568
1005.08676	0.0699848458
1003.65705	0.0708680376
1002.22734	0.0718018860
1000.79763	0.0727610961
999.36792	0.0737226829
997.93821	0.0746645108
996.50850	0.0755627602
995.07879	0.0763870329
993.64908	0.0771003887
992.21937	0.0776618570
990.78965	0.0780322924
989.35994	0.0781823620
987.93023	0.0781005174
986.50052	0.0777958483
985.07081	0.0772957504
983.64110	0.0766367018
982.21139	0.0758552924
980.78168	0.0749810785
979.35197	0.0740334690
977.92226	0.0730216727
976.49255	0.0719493255
975.06283	0.0708230287
973.63312	0.0696595833
972.20341	0.0684854016
970.77370	0.0673273578
969.34399	0.0662022606
967.91428	0.0651154667
966.48457	0.0640698224
965.05486	0.0630762801
963.62515	0.0621550120
962.19544	0.0613251515
960.76573	0.0605947487
959.33601	0.0599603914
957.90630	0.0594158769
956.47659	0.0589592047
955.04688	0.0585915558
953.61717	0.0583082549
952.18746	0.0580938756
950.75775	0.0579271615
949.32804	0.0577921532
947.89833	0.0576848835
946.46862	0.0576096550
945.03891	0.0575681254
943.60919	0.0575511046
942.17948	0.0575412028
940.74977	0.0575229377
939.32006	0.0574909933
937.89035	0.0574488007
936.46064	0.0574003160
935.03093	0.0573415272
933.60122	0.0572614819
932.17151	0.0571489111
930.74180	0.0570005961
929.31209	0.0568232983
927.88237	0.0566298217
926.45266	0.0564353392
925.02295	0.0562551469
923.59324	0.0561010092
922.16353	0.0559758134
920.73382	0.0558673739
919.30411	0.0557508096
917.87440	0.0556007326
916.44469	0.0554064773
915.01498	0.0551780052
913.58527	0.0549385175
912.15555	0.0547107011
910.72584	0.0545097105
909.29613	0.0543465689
907.86642	0.0542331114
906.43671	0.0541794710
905.00700	0.0541860387
903.57729	0.0542397387
902.14758	0.0543233044
900.71787	0.0544296578
899.28816	0.0545682050
897.85845	0.0547557138
896.42873	0.0550008304
894.99902	0.0552949160
893.56931	0.0556181483
892.13960	0.0559520200
890.70989	0.0562885925
889.28018	0.0566315316
887.85047	0.0569898523
886.42076	0.0573710985
884.99105	0.0577755049
883.56134	0.0581925139
882.13163	0.0586037599
880.70192	0.0589906648
879.27220	0.0593451224
877.84249	0.0596735850
876.41278	0.0599911511
874.98307	0.0603081770
873.55336	0.0606226064
872.12365	0.0609205216
870.69394	0.0611862503
869.26423	0.0614072308
867.83452	0.0615751371
866.40481	0.0616829805
864.97510	0.0617249943
863.54538	0.0616996884
862.11567	0.0616096482
860.68596	0.0614561625
859.25625	0.0612359904
857.82654	0.0609451570
856.39683	0.0605896898
854.96712	0.0601903535
853.53741	0.0597754344
852.10770	0.0593662225
850.67799	0.0589686930
849.24828	0.0585770085
847.81856	0.0581843741
846.38885	0.0577875115
844.95914	0.0573870204
843.52943	0.0569863990
842.09972	0.0565951392
840.67001	0.0562290698
839.24030	0.0559028797
837.81059	0.0556194149
836.38088	0.0553646311
834.95117	0.0551165491
833.52146	0.0548571534
832.09174	0.0545786843
830.66203	0.0542800985
829.23232	0.0539625175
827.80261	0.0536301732
826.37290	0.0532934591
824.94319	0.0529670343
823.51348	0.0526625961
822.08377	0.0523837507
820.65406	0.0521291047
819.22435	0.0519005433
817.79464	0.0517053977
816.36492	0.0515486673
814.93521	0.0514249802
813.50550	0.0513191260
812.07579	0.0512179621
810.64608	0.0511219129
809.21637	0.0510466471
807.78666	0.0510098189
806.35695	0.0510138944
804.92724	0.0510387272
803.49753	0.0510497019
802.06782	0.0510192774
800.63810	0.0509424843
799.20839	0.0508393683
797.77868	0.0507418364
796.34897	0.0506755635
794.91926	0.0506501123
793.48955	0.0506578758
792.05984	0.0506798699
790.63013	0.0506949946
789.20042	0.0506886244
787.77071	0.0506613404
786.34100	0.0506314076
784.91128	0.0506264344
783.48157	0.0506649166
782.05186	0.0507409051
780.62215	0.0508241802
779.19244	0.0508781336
777.76273	0.0508822389
776.33302	0.0508444048
774.90331	0.0507952571
773.47360	0.0507683977
772.04389	0.0507809967
770.61418	0.0508253425
769.18446	0.0508762710
767.75475	0.0509080514
766.32504	0.0509081110
764.89533	0.0508816279
763.46562	0.0508447811
762.03591	0.0508130938
760.60620	0.0507938601
759.17649	0.0507845171
757.74678	0.0507762842
756.31707	0.0507599898
754.88736	0.0507324971
753.45764	0.0506987199
752.02793	0.0506692789
750.59822	0.0506545603
749.16851	0.0506588072
747.73880	0.0506768450
746.30909	0.0506970026
744.87938	0.0507056713
743.44967	0.0506952293
742.01996	0.0506688133
740.59025	0.0506384745
739.16054	0.0506145954
737.73082	0.0505940318
736.30111	0.0505607016
734.87140	0.0505023114
733.44169	0.0504322387
732.01198	0.0503929034
730.58227	0.0504342727
729.15256	0.0505797528
727.72285	0.0508084372
726.29314	0.0510679856
724.86343	0.0513062216
723.43372	0.0514970198
722.00401	0.0516460352
720.57429	0.0517774820
719.14458	0.0519149229
717.71487	0.0520674102
716.28516	0.0522251129
714.85545	0.0523661412
713.42574	0.0524704680
711.99603	0.0525328964
710.56632	0.0525687709
709.13661	0.0526050888
707.70690	0.0526645556
706.27719	0.0527515933
704.84747	0.0528526194
703.41776	0.0529464483
701.98805	0.0530171618
700.55834	0.0530578457
699.12863	0.0530657135
697.69892	0.0530362874
696.26921	0.0529639348
694.83950	0.0528481156
693.40979	0.0526988655
691.98008	0.0525368415
690.55037	0.0523856804
689.12065	0.0522644408
687.69094	0.0521808863
686.26123	0.0521306247
684.83152	0.0520990752
683.40181	0.0520657748
681.97210	0.0520109124
680.54239	0.0519224815
679.11268	0.0518018380
677.68297	0.0516643450
676.25326	0.0515321419
674.82355	0.0514224172
673.39383	0.0513413288
671.96412	0.0512883067
670.53441	0.0512643605
669.10470	0.0512744673
667.67499	0.0513179898
666.24528	0.0513785332
664.81557	0.0514343046
663.38586	0.0514732674
661.95615	0.0514918342
660.52644	0.0514847785
659.09673	0.0514404811
657.66701	0.0513501838
656.23730	0.0512241349
654.80759	0.0510964915
653.37788	0.0510062352
651.94817	0.0509663858
650.51846	0.0509521216
649.08875	0.0509214140
647.65904	0.0508539490
646.22933	0.0507692136
644.79962	0.0507076792
643.36991	0.0506931618
641.94019	0.0507137887
640.51048	0.0507355817
639.08077	0.0507311560
637.65106	0.0506932512
636.22135	0.0506220721
634.79164	0.0505005941
633.36193	0.0502817780
631.93222	0.0499010421
630.50251	0.0493071303
629.07280	0.0484943725
627.64309	0.0475224219
626.21337	0.0465135127
624.78366	0.0456171930
623.35395	0.0449472219
621.92424	0.0445307456
620.49453	0.0443117619
619.06482	0.0442057103
617.63511	0.0441454127
616.20540	0.0440897681
614.77569	0.0440107249
613.34598	0.0438942350
611.91627	0.0437518060
610.48655	0.0436237678
609.05684	0.0435596034
607.62713	0.0435895361
606.19742	0.0437083207
604.76771	0.0438852124
603.33800	0.0440881066
601.90829	0.0443021879
600.47858	0.0445269868
599.04887	0.0447575003
