3997.47168	0.0575183593
3996.04197	0.0575092286
3994.61226	0.0575260706
3993.18255	0.0575701073
3991.75284	0.0576337129
3990.32312	0.0577073544
3988.89341	0.0577883385
3987.46370	0.0578779168
3986.03399	0.0579725392
3984.60428	0.0580570661
3983.17457	0.0581110083
3981.74486	0.0581216030
3980.31515	0.0580944680
3978.88544	0.0580492839
3977.45573	0.0580062643
3976.02602	0.0579751730
3974.59630	0.0579533428
3973.16659	0.0579334646
3971.73688	0.0579105392
3970.30717	0.0578850731
3968.87746	0.0578600802
3967.44775	0.0578386411
3966.01804	0.0578200668
3964.58833	0.0578014106
3963.15862	0.0577792004
3961.72891	0.0577532686
3960.29920	0.0577271320
3958.86948	0.0577035695
3957.43977	0.0576791205
3956.01006	0.0576424338
3954.58035	0.0575816333
3953.15064	0.0574949235
3951.72093	0.0573976561
3950.29122	0.0573163591
3948.86151	0.0572758950
3947.43180	0.0572857298
3946.00209	0.0573386922
3944.57238	0.0574185140
3943.14266	0.0575073063
3941.71295	0.0575885512
3940.28324	0.0576484352
3938.85353	0.0576802157
3937.42382	0.0576873682
3935.99411	0.0576844402
3934.56440	0.0576886684
3933.13469	0.0577084199
3931.70498	0.0577370077
3930.27527	0.0577585027
3928.84556	0.0577603653
3927.41585	0.0577415004
3925.98613	0.0577078573
3924.55642	0.0576670878
3923.12671	0.0576279499
3921.69700	0.0576040372
3920.26729	0.0576133206
3918.83758	0.0576669127
3917.40787	0.0577562265
3915.97816	0.0578510612
3914.54845	0.0579129644
3913.11874	0.0579140298
3911.68903	0.0578404441
3910.25931	0.0576883443
3908.82960	0.0574612394
3907.39989	0.0571772903
3905.97018	0.0568844937
3904.54047	0.0566652417
3903.11076	0.0566118024
3901.68105	0.0567588955
3900.25134	0.0570393540
3898.82163	0.0573256649
3897.39192	0.0575177073
3895.96221	0.0575860068
3894.53249	0.0575603545
3893.10278	0.0574997403
3891.67307	0.0574611202
3890.24336	0.0574713759
3888.81365	0.0575206354
3887.38394	0.0575810149
3885.95423	0.0576326810
3884.52452	0.0576738305
3883.09481	0.0577115528
3881.66510	0.0577440746
3880.23539	0.0577524416
3878.80567	0.0577106662
3877.37596	0.0576046593
3875.94625	0.0574458465
3874.51654	0.0572733544
3873.08683	0.0571409389
3871.65712	0.0570885651
3870.22741	0.0571165234
3868.79770	0.0571909323
3867.36799	0.0572841354
3865.93828	0.0573960617
3864.50857	0.0575294718
3863.07885	0.0576485246
3861.64914	0.0576782636
3860.21943	0.0575512201
3858.78972	0.0572549552
3857.36001	0.0568576120
3855.93030	0.0565235466
3854.50059	0.0564861335
3853.07088	0.0568705946
3851.64117	0.0574977919
3850.21146	0.0580435432
3848.78175	0.0583299585
3847.35203	0.0583510958
3845.92232	0.0581732169
3844.49261	0.0578813180
3843.06290	0.0575712584
3841.63319	0.0573407598
3840.20348	0.0572622195
3838.77377	0.0573433004
3837.34406	0.0575145185
3835.91435	0.0576772280
3834.48464	0.0577737615
3833.05493	0.0578075610
3831.62521	0.0578087419
3830.19550	0.0577924475
3828.76579	0.0577485375
3827.33608	0.0576601401
3825.90637	0.0575298257
3824.47666	0.0573918968
3823.04695	0.0573012084
3821.61724	0.0573104545
3820.18753	0.0574446917
3818.75782	0.0576879904
3817.32811	0.0579854697
3815.89839	0.0582606234
3814.46868	0.0584418848
3813.03897	0.0584916696
3811.60926	0.0584170111
3810.17955	0.0582591146
3808.74984	0.0580742881
3807.32013	0.0579121374
3805.89042	0.0578012317
3804.46071	0.0577516444
3803.03100	0.0577733181
3801.60129	0.0578851029
3800.17157	0.0580956526
3798.74186	0.0583783388
3797.31215	0.0586763769
3795.88244	0.0589338541
3794.45273	0.0591191985
3793.02302	0.0592274144
3791.59331	0.0592699014
3790.16360	0.0592653602
3788.73389	0.0592335537
3787.30418	0.0591918416
3785.87447	0.0591539294
3784.44475	0.0591295473
3783.01504	0.0591284819
3781.58533	0.0591598935
3780.15562	0.0592236742
3778.72591	0.0592999570
3777.29620	0.0593524836
3775.86649	0.0593511164
3774.43678	0.0592934005
3773.00707	0.0592071190
3771.57736	0.0591373183
3770.14765	0.0591231138
3768.71794	0.0591735989
3767.28822	0.0592615940
3765.85851	0.0593444407
3764.42880	0.0593960211
3762.99909	0.0594194382
3761.56938	0.0594339818
3760.13967	0.0594469234
3758.70996	0.0594302118
3757.28025	0.0593288019
3755.85054	0.0591043085
3754.42083	0.0587774888
3752.99112	0.0584398732
3751.56140	0.0582123436
3750.13169	0.0581625327
3748.70198	0.0582660995
3747.27227	0.0584707297
3745.84256	0.0587643310
3744.41285	0.0591406114
3742.98314	0.0595287085
3741.55343	0.0598142631
3740.12372	0.0599270202
3738.69401	0.0598877966
3737.26430	0.0597959608
3735.83458	0.0597768314
3734.40487	0.0598946884
3732.97516	0.0600976534
3731.54545	0.0602794476
3730.11574	0.0603824481
3728.68603	0.0604174919
3727.25632	0.0604336783
3725.82661	0.0604887493
3724.39690	0.0606236756
3722.96719	0.0608389527
3721.53748	0.0610878244
3720.10776	0.0612997822
3718.67805	0.0614145957
3717.24834	0.0614055023
3715.81863	0.0612904802
3714.38892	0.0611434840
3712.95921	0.0610916652
3711.52950	0.0612533689
3710.09979	0.0616252497
3708.67008	0.0620638318
3707.24037	0.0624235272
3705.81066	0.0626701340
3704.38094	0.0628659949
3702.95123	0.0630910993
3701.52152	0.0633755252
3700.09181	0.0636776462
3698.66210	0.0639251843
3697.23239	0.0640755817
3695.80268	0.0641444102
3694.37297	0.0642010644
3692.94326	0.0643515587
3691.51355	0.0647000894
3690.08384	0.0652680919
3688.65412	0.0659315214
3687.22441	0.0664988756
3685.79470	0.0668632314
3684.36499	0.0670383349
3682.93528	0.0670892969
3681.50557	0.0670825839
3680.07586	0.0670895055
3678.64615	0.0672036558
3677.21644	0.0675267428
3675.78673	0.0681061223
3674.35702	0.0688952357
3672.92730	0.0698066950
3671.49759	0.0707905740
3670.06788	0.0718220696
3668.63817	0.0728488863
3667.20846	0.0737986416
3665.77875	0.0746354908
3664.34904	0.0753812268
3662.91933	0.0760840252
3661.48962	0.0767830089
3660.05991	0.0774970502
3658.63020	0.0782285109
3657.20048	0.0789651126
3655.77077	0.0796828121
3654.34106	0.0803744793
3652.91135	0.0811039060
3651.48164	0.0820314363
3650.05193	0.0833293945
3648.62222	0.0849750489
3647.19251	0.0866795257
3645.76280	0.0881587118
3644.33309	0.0893708169
3642.90338	0.0904434100
3641.47366	0.0915113688
3640.04395	0.0926397294
3638.61424	0.0938177034
3637.18453	0.0949859023
3635.75482	0.0960811228
3634.32511	0.0970909223
3632.89540	0.0981059000
3631.46569	0.0993216261
3630.03598	0.1009144932
3628.60627	0.1028172523
3627.17656	0.1046815962
3625.74684	0.1061931849
3624.31713	0.1073248610
3622.88742	0.1082676724
3621.45771	0.1092532724
3620.02800	0.1104283482
3618.59829	0.1117945835
3617.16858	0.1132372990
3615.73887	0.1146334484
3614.30916	0.1159454882
3612.87945	0.1172294244
3611.44974	0.1185831800
3610.02003	0.1200701594
3608.59031	0.1216598675
3607.16060	0.1232402176
3605.73089	0.1247017235
3604.30118	0.1260058880
3602.87147	0.1271832436
3601.44176	0.1282928735
3600.01205	0.1293958277
3598.58234	0.1305457056
3597.15263	0.1317701340
3595.72292	0.1330438703
3594.29321	0.1342968643
3592.86349	0.1354819536
3591.43378	0.1366441101
3590.00407	0.1379134059
3588.57436	0.1393979192
3587.14465	0.1410576999
3585.71494	0.1427022219
3584.28523	0.1441483498
3582.85552	0.1453568637
3581.42581	0.1464158744
3579.99610	0.1474450678
3578.56639	0.1485224962
3577.13667	0.1496551931
3575.70696	0.1507891715
3574.27725	0.1518533081
3572.84754	0.1528216898
3571.41783	0.1537561715
3569.98812	0.1547973305
3568.55841	0.1560870111
3567.12870	0.1576471776
3565.69899	0.1593298465
3564.26928	0.1609289050
3562.83957	0.1623392701
3561.40985	0.1635852307
3559.98014	0.1647434682
3558.55043	0.1658789515
3557.12072	0.1670280397
3555.69101	0.1682044417
3554.26130	0.1694045663
3552.83159	0.1706137359
3551.40188	0.1718229651
3549.97217	0.1730466485
3548.54246	0.1743182093
3547.11275	0.1756592244
3545.68303	0.1770472229
3544.25332	0.1784170270
3542.82361	0.1797017306
3541.39390	0.1808765829
3539.96419	0.1819694787
3538.53448	0.1830352992
3537.10477	0.1841178685
3535.67506	0.1852233708
3534.24535	0.1863265634
3532.81564	0.1874063313
3531.38593	0.1884764433
3529.95621	0.1895819008
3528.52650	0.1907593906
3527.09679	0.1920040995
3525.66708	0.1932717562
3524.23737	0.1945146918
3522.80766	0.1957107931
3521.37795	0.1968617141
3519.94824	0.1979755759
3518.51853	0.1990585923
3517.08882	0.2001152486
3515.65911	0.2011500448
3514.22939	0.2021662444
3512.79968	0.2031668127
3511.36997	0.2041590363
3509.94026	0.2051550001
3508.51055	0.2061660141
3507.08084	0.2071998715
3505.65113	0.2082656771
3504.22142	0.2093728483
3502.79171	0.2105155736
3501.36200	0.2116591334
3499.93229	0.2127506882
3498.50257	0.2137544155
3497.07286	0.2146734595
3495.64315	0.2155408859
3494.21344	0.2163918018
3492.78373	0.2172472477
3491.35402	0.2181186676
3489.92431	0.2190128416
3488.49460	0.2199272066
3487.06489	0.2208447456
3485.63518	0.2217473090
3484.20547	0.2226333469
3482.77575	0.2235186100
3481.34604	0.2244129181
3479.91633	0.2253036350
3478.48662	0.2261680812
3477.05691	0.2269986123
3475.62720	0.2278095782
3474.19749	0.2286198139
3472.76778	0.2294341624
3471.33807	0.2302433550
3469.90836	0.2310352027
3468.47865	0.2318008989
3467.04893	0.2325346023
3465.61922	0.2332377434
3464.18951	0.2339259833
3462.75980	0.2346237898
3461.33009	0.2353466153
3459.90038	0.2360863537
3458.47067	0.2368201911
3457.04096	0.2375271022
3455.61125	0.2381963134
3454.18154	0.2388222367
3452.75183	0.2394041419
3451.32212	0.2399554700
3449.89240	0.2405083179
3448.46269	0.2410968542
3447.03298	0.2417297363
3445.60327	0.2423834801
3444.17356	0.2430225313
3442.74385	0.2436266094
3441.31414	0.2441949993
3439.88443	0.2447354496
3438.45472	0.2452565730
3437.02501	0.2457692474
3435.59530	0.2462843060
3434.16558	0.2468024045
3432.73587	0.2473087758
3431.30616	0.2477820665
3429.87645	0.2482123226
3428.44674	0.2486074865
3427.01703	0.2489870340
3425.58732	0.2493727505
3424.15761	0.2497868687
3422.72790	0.2502452433
3421.29819	0.2507455349
3419.86848	0.2512598336
3418.43876	0.2517497241
3417.00905	0.2521910965
3415.57934	0.2525877953
3414.14963	0.2529586256
3412.71992	0.2533171177
3411.29021	0.2536659837
3409.86050	0.2540070415
3408.43079	0.2543475032
3407.00108	0.2546937764
3405.57137	0.2550405562
3404.14166	0.2553696036
3402.71194	0.2556606531
3401.28223	0.2559024394
3399.85252	0.2560983300
3398.42281	0.2562677562
3396.99310	0.2564392090
3395.56339	0.2566315532
3394.13368	0.2568368614
3392.70397	0.2570206523
3391.27426	0.2571499348
3389.84455	0.2572244704
3388.41484	0.2572811246
3386.98512	0.2573673427
3385.55541	0.2575084269
3384.12570	0.2576991618
3382.69599	0.2579202354
3381.26628	0.2581590414
3379.83657	0.2584148645
3378.40686	0.2586938739
3376.97715	0.2590015233
3375.54744	0.2593367994
3374.11773	0.2596873939
3372.68802	0.2600253522
3371.25830	0.2603161037
3369.82859	0.2605346739
3368.39888	0.2606819868
3366.96917	0.2607831955
3365.53946	0.2608711720
3364.10975	0.2609667778
3362.68004	0.2610692382
3361.25033	0.2611654103
3359.82062	0.2612488270
3358.39091	0.2613354027
3356.96120	0.2614607513
3355.53148	0.2616560459
3354.10177	0.2619211078
3352.67206	0.2622174621
3351.24235	0.2624929845
3349.81264	0.2627183795
3348.38293	0.2629025578
3346.95322	0.2630777359
3345.52351	0.2632695138
3344.09380	0.2634800673
3342.66409	0.2636930346
3341.23438	0.2638896406
3339.80466	0.2640577555
3338.37495	0.2641956210
3336.94524	0.2643112838
3335.51553	0.2644257843
3334.08582	0.2645707130
3332.65611	0.2647795975
3331.22640	0.2650721967
3329.79669	0.2654429376
3328.36698	0.2658589482
3326.93727	0.2662714720
3325.50756	0.2666385770
3324.07784	0.2669452429
3322.64813	0.2672082484
3321.21842	0.2674624920
3319.78871	0.2677372992
3318.35900	0.2680450082
3316.92929	0.2683905661
3315.49958	0.2687870860
3314.06987	0.2692606151
3312.64016	0.2698324025
3311.21045	0.2704915106
3309.78074	0.2711808383
3308.35102	0.2718089819
3306.92131	0.2722856402
3305.49160	0.2725628018
3304.06189	0.2726606727
3302.63218	0.2726639211
3301.20247	0.2726850510
3299.77276	0.2728097737
3298.34305	0.2730558217
3296.91334	0.2733688354
3295.48363	0.2736562490
3294.05392	0.2738366425
3292.62421	0.2738739848
3291.19449	0.2737817466
3289.76478	0.2736001611
3288.33507	0.2733658254
3286.90536	0.2730933428
3285.47565	0.2727793157
3284.04594	0.2724202573
3282.61623	0.2720282078
3281.18652	0.2716278732
3279.75681	0.2712388039
3278.32710	0.2708568275
3276.89739	0.2704516053
3275.46767	0.2699792981
3274.03796	0.2693984807
3272.60825	0.2686822414
3271.17854	0.2678213120
3269.74883	0.2668261230
3268.31912	0.2657263279
3266.88941	0.2645652890
3265.45970	0.2633885741
3264.02999	0.2622314095
3262.60028	0.2611132860
3261.17057	0.2600370646
3259.74085	0.2589942515
3258.31114	0.2579681873
3256.88143	0.2569437325
3255.45172	0.2559170425
3254.02201	0.2549027205
3252.59230	0.2539258897
3251.16259	0.2530019581
3249.73288	0.2521206737
3248.30317	0.2512481511
3246.87346	0.2503484488
3245.44375	0.2494075894
3244.01403	0.2484439462
3242.58432	0.2474989444
3241.15461	0.2466159761
3239.72490	0.2458217144
3238.29519	0.2451162189
3236.86548	0.2444743812
3235.43577	0.2438583821
3234.00606	0.2432336360
3232.57635	0.2425840795
3231.14664	0.2419139892
3229.71693	0.2412377596
3228.28721	0.2405648381
3226.85750	0.2398951650
3225.42779	0.2392266840
3223.99808	0.2385653406
3222.56837	0.2379245162
3221.13866	0.2373132110
3219.70895	0.2367247790
3218.27924	0.2361400276
3216.84953	0.2355425805
3215.41982	0.2349319905
3213.99011	0.2343227416
3212.56039	0.2337300032
3211.13068	0.2331556082
3209.70097	0.2325866073
3208.27126	0.2320058942
3206.84155	0.2314037383
3205.41184	0.2307805717
3203.98213	0.2301432192
3202.55242	0.2294991910
3201.12271	0.2288539708
3199.69300	0.2282115072
3198.26329	0.2275737524
3196.83357	0.2269387245
3195.40386	0.2263008654
3193.97415	0.2256527692
3192.54444	0.2249880731
3191.11473	0.2243020087
3189.68502	0.2235918045
3188.25531	0.2228568196
3186.82560	0.2221011072
3185.39589	0.2213343829
3183.96618	0.2205698639
3182.53647	0.2198190987
3181.10675	0.2190888375
3179.67704	0.2183792442
3178.24733	0.2176840454
3176.81762	0.2169913650
3175.38791	0.2162870020
3173.95820	0.2155603170
3172.52849	0.2148119956
3171.09878	0.2140556425
3169.66907	0.2133099586
3168.23936	0.2125860453
3166.80965	0.2118778229
3165.37993	0.2111643255
3163.95022	0.2104247510
3162.52051	0.2096551955
3161.09080	0.2088751793
3159.66109	0.2081202716
3158.23138	0.2074195892
3156.80167	0.2067749947
3155.37196	0.2061551213
3153.94225	0.2055108994
3152.51254	0.2048030049
3151.08283	0.2040229142
3149.65311	0.2031958699
3148.22340	0.2023640722
3146.79369	0.2015670240
3145.36398	0.2008268386
3143.93427	0.2001455277
3142.50456	0.1995091736
3141.07485	0.1988942474
3139.64514	0.1982757896
3138.21543	0.1976377517
3136.78572	0.1969793588
3135.35601	0.1963125914
3133.92629	0.1956505924
3132.49658	0.1949966550
3131.06687	0.1943432540
3129.63716	0.1936839521
3128.20745	0.1930260658
3126.77774	0.1923937947
3125.34803	0.1918161213
3123.91832	0.1913082898
3122.48861	0.1908604950
3121.05890	0.1904399842
3119.62919	0.1900048703
3118.19948	0.1895217001
3116.76976	0.1889783442
3115.34005	0.1883872896
3113.91034	0.1877782047
3112.48063	0.1871824861
3111.05092	0.1866174936
3109.62121	0.1860829592
3108.19150	0.1855697185
3106.76179	0.1850734949
3105.33208	0.1845980734
3103.90237	0.1841457188
3102.47266	0.1837062836
3101.04294	0.1832603812
3099.61323	0.1827979237
3098.18352	0.1823347211
3096.75381	0.1819069088
3095.32410	0.1815445423
3093.89439	0.1812448800
3092.46468	0.1809719205
3091.03497	0.1806800961
3089.60526	0.1803438067
3088.17555	0.1799678952
3086.74584	0.1795748621
3085.31612	0.1791826338
3083.88641	0.1787915528
3082.45670	0.1783844680
3081.02699	0.1779381037
3079.59728	0.1774349064
3078.16757	0.1768720597
3076.73786	0.1762665510
3075.30815	0.1756526232
3073.87844	0.1750703901
3072.44873	0.1745472848
3071.01902	0.1740824580
3069.58930	0.1736418009
3068.15959	0.1731718183
3066.72988	0.1726259142
3065.30017	0.1719900221
3063.87046	0.1712918133
3062.44075	0.1705861390
3061.01104	0.1699239314
3059.58133	0.1693256944
3058.15162	0.1687755138
3056.72191	0.1682367474
3055.29220	0.1676770896
3053.86248	0.1670844853
3052.43277	0.1664665639
3051.00306	0.1658409834
3049.57335	0.1652248204
3048.14364	0.1646282673
3046.71393	0.1640498489
3045.28422	0.1634736061
3043.85451	0.1628731489
3042.42480	0.1622263938
3040.99509	0.1615323126
3039.56538	0.1608143002
3038.13566	0.1601042449
3036.70595	0.1594179124
3035.27624	0.1587434113
3033.84653	0.1580555439
3032.41682	0.1573409438
3030.98711	0.1566149294
3029.55740	0.1559105515
3028.12769	0.1552556455
3026.69798	0.1546562016
3025.26827	0.1540985852
3023.83856	0.1535660177
3022.40884	0.1530507505
3020.97913	0.1525558382
3019.54942	0.1520866901
3018.11971	0.1516426802
3016.69000	0.1512124836
3015.26029	0.1507751495
3013.83058	0.1503063142
3012.40087	0.1497893780
3010.97116	0.1492258906
3009.54145	0.1486405432
3008.11174	0.1480743140
3006.68202	0.1475683600
3005.25231	0.1471468061
3003.82260	0.1468095183
3002.39289	0.1465389729
3000.96318	0.1463148892
2999.53347	0.1461251229
2998.10376	0.1459679157
2996.67405	0.1458429098
2995.24434	0.1457429975
2993.81463	0.1456542611
2992.38492	0.1455663741
2990.95520	0.1454858482
2989.52549	0.1454412043
2988.09578	0.1454728246
2986.66607	0.1456119865
2985.23636	0.1458624601
2983.80665	0.1461971104
2982.37694	0.1465714276
2980.94723	0.1469436586
2979.51752	0.1472903192
2978.08781	0.1476087570
2976.65810	0.1479108334
2975.22838	0.1482129693
2973.79867	0.1485293061
2972.36896	0.1488683820
2970.93925	0.1492320299
2969.50954	0.1496137977
2968.07983	0.1499959230
2966.65012	0.1503478885
2965.22041	0.1506275833
2963.79070	0.1507888138
2962.36099	0.1507933140
2960.93128	0.1506226063
2959.50157	0.1502834857
2958.07185	0.1498052776
2956.64214	0.1492281258
2955.21243	0.1485933810
2953.78272	0.1479383409
2952.35301	0.1472971141
2950.92330	0.1467031837
2949.49359	0.1461848468
2948.06388	0.1457580924
2946.63417	0.1454218030
2945.20446	0.1451626122
2943.77475	0.1449660510
2942.34503	0.1448269486
2940.91532	0.1447473317
2939.48561	0.1447298378
2938.05590	0.1447677314
2936.62619	0.1448444426
2935.19648	0.1449365616
2933.76677	0.1450175494
2932.33706	0.1450576037
2930.90735	0.1450241059
2929.47764	0.1448889673
2928.04793	0.1446411312
2926.61821	0.1442932487
2925.18850	0.1438751966
2923.75879	0.1434140056
2922.32908	0.1429142207
2920.89937	0.1423535198
2919.46966	0.1416943967
2918.03995	0.1409048587
2916.61024	0.1399737895
2915.18053	0.1389161348
2913.75082	0.1377698630
2912.32111	0.1365878433
2910.89139	0.1354285628
2909.46168	0.1343425810
2908.03197	0.1333591342
2906.60226	0.1324805766
2905.17255	0.1316896379
2903.74284	0.1309672296
2902.31313	0.1303056926
2900.88342	0.1297065765
2899.45371	0.1291677356
2898.02400	0.1286712587
2896.59429	0.1281891018
2895.16457	0.1277014315
2893.73486	0.1272108704
2892.30515	0.1267408878
2890.87544	0.1263199002
2889.44573	0.1259657592
2888.01602	0.1256829947
2886.58631	0.1254698932
2885.15660	0.1253245324
2883.72689	0.1252467483
2882.29718	0.1252343506
2880.86747	0.1252807081
2879.43775	0.1253701001
2878.00804	0.1254687607
2876.57833	0.1255209446
2875.14862	0.1254571378
2873.71891	0.1252201498
2872.28920	0.1247936636
2870.85949	0.1242124662
2869.42978	0.1235460639
2868.00007	0.1228672490
2866.57036	0.1222269833
2865.14065	0.1216494888
2863.71093	0.1211407334
2862.28122	0.1206973046
2860.85151	0.1203099862
2859.42180	0.1199624613
2857.99209	0.1196326613
2856.56238	0.1192951500
2855.13267	0.1189223528
2853.70296	0.1184826493
2852.27325	0.1179426387
2850.84354	0.1172761470
2849.41383	0.1164794266
2847.98411	0.1155840009
2846.55440	0.1146524921
2845.12469	0.1137591079
2843.69498	0.1129610837
2842.26527	0.1122793928
2840.83556	0.1116976216
2839.40585	0.1111789569
2837.97614	0.1106884927
2836.54643	0.1102069244
2835.11672	0.1097321212
2833.68701	0.1092735156
2832.25729	0.1088455617
2830.82758	0.1084616855
2829.39787	0.1081291884
2827.96816	0.1078423262
2826.53845	0.1075814292
2825.10874	0.1073219776
2823.67903	0.1070458889
2822.24932	0.1067497805
2820.81961	0.1064433604
2819.38990	0.1061415523
2817.96019	0.1058585495
2816.53047	0.1056055725
2815.10076	0.1053887010
2813.67105	0.1052040011
2812.24134	0.1050328985
2810.81163	0.1048462391
2809.38192	0.1046190411
2807.95221	0.1043464094
2806.52250	0.1040490493
2805.09279	0.1037623733
2803.66308	0.1035156399
2802.23337	0.1033142954
2800.80366	0.1031374335
2799.37394	0.1029530317
2797.94423	0.1027395874
2796.51452	0.1024997234
2795.08481	0.1022550836
2793.65510	0.1020267829
2792.22539	0.1018160209
2790.79568	0.1016020179
2789.36597	0.1013583392
2787.93626	0.1010744795
2786.50655	0.1007644311
2785.07684	0.1004574671
2783.64712	0.1001803949
2782.21741	0.0999453664
2780.78770	0.0997476578
2779.35799	0.0995709375
2777.92828	0.0993924662
2776.49857	0.0991894454
2775.06886	0.0989458486
2773.63915	0.0986609310
2772.20944	0.0983528271
2770.77973	0.0980510041
2769.35002	0.0977821350
2767.92030	0.0975568295
2766.49059	0.0973665491
2765.06088	0.0971911252
2763.63117	0.0970101357
2762.20146	0.0968126208
2760.77175	0.0965979025
2759.34204	0.0963740796
2757.91233	0.0961540490
2756.48262	0.0959518626
2755.05291	0.0957778692
2753.62320	0.0956315398
2752.19348	0.0954981893
2750.76377	0.0953526869
2749.33406	0.0951708481
2747.90435	0.0949431509
2746.47464	0.0946802944
2745.04493	0.0944074914
2743.61522	0.0941509306
2742.18551	0.0939231887
2740.75580	0.0937188566
2739.32609	0.0935190171
2737.89638	0.0933047980
2736.46666	0.0930694118
2735.03695	0.0928228498
2733.60724	0.0925857052
2732.17753	0.0923755988
2730.74782	0.0921954513
2729.31811	0.0920303836
2727.88840	0.0918565840
2726.45869	0.0916535407
2725.02898	0.0914144516
2723.59927	0.0911486372
2722.16956	0.0908763558
2720.73984	0.0906190053
2719.31013	0.0903890580
2717.88042	0.0901850387
2716.45071	0.0899932832
2715.02100	0.0897974446
2713.59129	0.0895879418
2712.16158	0.0893669054
2710.73187	0.0891450942
2709.30216	0.0889339074
2707.87245	0.0887387022
2706.44274	0.0885561854
2705.01302	0.0883775502
2703.58331	0.0881954059
2702.15360	0.0880082399
2700.72389	0.0878217146
2699.29418	0.0876431316
2697.86447	0.0874744654
2696.43476	0.0873097926
2695.00505	0.0871398672
2693.57534	0.0869591907
2692.14563	0.0867700204
2690.71592	0.0865807757
2689.28620	0.0864015296
2687.85649	0.0862412080
2686.42678	0.0861046463
2684.99707	0.0859906599
2683.56736	0.0858888775
2682.13765	0.0857826099
2680.70794	0.0856553391
2679.27823	0.0855005905
2677.84852	0.0853238702
2676.41881	0.0851371437
2674.98910	0.0849502757
2673.55938	0.0847671106
2672.12967	0.0845881402
2670.69996	0.0844139010
2669.27025	0.0842451677
2667.84054	0.0840807036
2666.41083	0.0839158073
2664.98112	0.0837461650
2663.55141	0.0835708454
2662.12170	0.0833946615
2660.69199	0.0832249373
2659.26228	0.0830668509
2657.83256	0.0829217955
2656.40285	0.0827874020
2654.97314	0.0826594010
2653.54343	0.0825336725
2652.11372	0.0824077800
2650.68401	0.0822820887
2649.25430	0.0821591243
2647.82459	0.0820418224
2646.39488	0.0819313303
2644.96517	0.0818254352
2643.53546	0.0817194656
2642.10575	0.0816089958
2640.67603	0.0814904720
2639.24632	0.0813613907
2637.81661	0.0812201127
2636.38690	0.0810673386
2634.95719	0.0809094086
2633.52748	0.0807592720
2632.09777	0.0806321502
2630.66806	0.0805375427
2629.23835	0.0804708898
2627.80864	0.0804133862
2626.37893	0.0803413987
2624.94921	0.0802395344
2623.51950	0.0801102892
2622.08979	0.0799731538
2620.66008	0.0798519328
2619.23037	0.0797607526
2617.80066	0.0796950981
2616.37095	0.0796354488
2614.94124	0.0795605183
2613.51153	0.0794599503
2612.08182	0.0793397054
2610.65211	0.0792174786
2609.22239	0.0791106895
2607.79268	0.0790286064
2606.36297	0.0789689571
2604.93326	0.0789205879
2603.50355	0.0788703635
2602.07384	0.0788081586
2600.64413	0.0787322223
2599.21442	0.0786483511
2597.78471	0.0785677880
2596.35500	0.0784997717
2594.92529	0.0784465522
2593.49557	0.0784025192
2592.06586	0.0783595145
2590.63615	0.0783135667
2589.20644	0.0782675296
2587.77673	0.0782272369
2586.34702	0.0781938583
2584.91731	0.0781619027
2583.48760	0.0781229213
2582.05789	0.0780743062
2580.62818	0.0780219734
2579.19847	0.0779765621
2577.76875	0.0779449642
2576.33904	0.0779255107
2574.90933	0.0779115781
2573.47962	0.0778970197
2572.04991	0.0778789297
2570.62020	0.0778571293
2569.19049	0.0778322592
2567.76078	0.0778056309
2566.33107	0.0777816623
2564.90136	0.0777663067
2563.47165	0.0777645111
2562.04193	0.0777770802
2560.61222	0.0777993724
2559.18251	0.0778249502
2557.75280	0.0778481811
2556.32309	0.0778658316
2554.89338	0.0778781846
2553.46367	0.0778875425
2552.03396	0.0778975114
2550.60425	0.0779099315
2549.17454	0.0779252350
2547.74483	0.0779424831
2546.31511	0.0779616609
2544.88540	0.0779821053
2543.45569	0.0780025199
2542.02598	0.0780198053
2540.59627	0.0780332834
2539.16656	0.0780459195
2537.73685	0.0780643299
2536.30714	0.0780944154
2534.87743	0.0781375170
2533.44772	0.0781910643
2532.01801	0.0782511979
2530.58829	0.0783156157
2529.15858	0.0783824846
2527.72887	0.0784496516
2526.29916	0.0785141289
2524.86945	0.0785742402
2523.43974	0.0786291212
2522.01003	0.0786779523
2520.58032	0.0787185356
2519.15061	0.0787482634
2517.72090	0.0787676275
2516.29119	0.0787814111
2514.86147	0.0787968636
2513.43176	0.0788198933
2512.00205	0.0788522065
2510.57234	0.0788932070
2509.14263	0.0789424777
2507.71292	0.0790011883
2506.28321	0.0790706873
2504.85350	0.0791482702
2503.42379	0.0792269856
2501.99408	0.0792989060
2500.56437	0.0793612078
2499.13465	0.0794182718
2497.70494	0.0794778243
2496.27523	0.0795436651
2494.84552	0.0796108246
2493.41581	0.0796695948
2491.98610	0.0797129199
2490.55639	0.0797426850
2489.12668	0.0797687471
2487.69697	0.0798013136
2486.26726	0.0798455849
2484.83755	0.0798998475
2483.40784	0.0799593404
2481.97812	0.0800209269
2480.54841	0.0800843611
2479.11870	0.0801507905
2477.68899	0.0802200064
2476.25928	0.0802897289
2474.82957	0.0803565979
2473.39986	0.0804183036
2471.97015	0.0804740116
2470.54044	0.0805227980
2469.11073	0.0805624053
2467.68102	0.0805908889
2466.25130	0.0806094334
2464.82159	0.0806248561
2463.39188	0.0806467682
2461.96217	0.0806818083
2460.53246	0.0807292834
2459.10275	0.0807826817
2457.67304	0.0808344707
2456.24333	0.0808809698
2454.81362	0.0809219778
2453.38391	0.0809595287
2451.95420	0.0809954926
2450.52448	0.0810319334
2449.09477	0.0810709298
2447.66506	0.0811138898
2446.23535	0.0811585411
2444.80564	0.0811993554
2443.37593	0.0812296346
2441.94622	0.0812448636
2440.51651	0.0812461078
2439.08680	0.0812391490
2437.65709	0.0812321603
2436.22738	0.0812318474
2434.79766	0.0812398046
2433.36795	0.0812524185
2431.93824	0.0812636539
2430.50853	0.0812706128
2429.07882	0.0812757611
2427.64911	0.0812851563
2426.21940	0.0813038573
2424.78969	0.0813301057
2423.35998	0.0813557357
2421.93027	0.0813705027
2420.50056	0.0813692585
2419.07084	0.0813545212
2417.64113	0.0813353807
2416.21142	0.0813210234
2414.78171	0.0813155025
2413.35200	0.0813161582
2411.92229	0.0813164636
2410.49258	0.0813106298
2409.06287	0.0812972039
2407.63316	0.0812791362
2406.20345	0.0812625885
2404.77374	0.0812530071
2403.34402	0.0812516063
2401.91431	0.0812528208
2400.48460	0.0812470466
2399.05489	0.0812280700
2397.62518	0.0811996683
2396.19547	0.0811751708
2394.76576	0.0811680257
2393.33605	0.0811803192
2391.90634	0.0811995789
2390.47663	0.0812053531
2389.04692	0.0811808556
2387.61720	0.0811193809
2386.18749	0.0810221657
2384.75778	0.0808929726
2383.32807	0.0807351395
2381.89836	0.0805519372
2380.46865	0.0803471580
2379.03894	0.0801249519
2377.60923	0.0798886120
2376.17952	0.0796400830
2374.74981	0.0793819726
2373.32010	0.0791182667
2371.89038	0.0788546577
2370.46067	0.0785963908
2369.03096	0.0783458725
2367.60125	0.0781000853
2366.17154	0.0778495744
2364.74183	0.0775891468
2363.31212	0.0773365498
2361.88241	0.0771452487
2360.45270	0.0770874023
2359.02299	0.0772120655
2357.59328	0.0775087476
2356.16356	0.0779059380
2354.73385	0.0783032402
2353.30414	0.0786146000
2351.87443	0.0787953436
2350.44472	0.0788379908
2349.01501	0.0787578821
2347.58530	0.0785832331
2346.15559	0.0783547089
2344.72588	0.0781253055
2343.29617	0.0779468194
2341.86646	0.0778441504
2340.43674	0.0777998418
2339.00703	0.0777745768
2337.57732	0.0777391195
2336.14761	0.0776892826
2334.71790	0.0776399970
2333.28819	0.0776105672
2331.85848	0.0776131004
2330.42877	0.0776460692
2328.99906	0.0776988789
2327.56935	0.0777621865
2326.13964	0.0778343976
2324.70993	0.0779181123
2323.28021	0.0780131742
2321.85050	0.0781129450
2320.42079	0.0782065615
2318.99108	0.0782853588
2317.56137	0.0783462450
2316.13166	0.0783911720
2314.70195	0.0784245059
2313.27224	0.0784500241
2311.84253	0.0784684420
2310.41282	0.0784791112
2308.98311	0.0784835815
2307.55339	0.0784871802
2306.12368	0.0784972534
2304.69397	0.0785163939
2303.26426	0.0785382614
2301.83455	0.0785501078
2300.40484	0.0785402134
2298.97513	0.0785053223
2297.54542	0.0784536824
2296.11571	0.0784013122
2294.68600	0.0783633590
2293.25629	0.0783468932
2291.82657	0.0783463642
2290.39686	0.0783473924
2288.96715	0.0783348307
2287.53744	0.0783017874
2286.10773	0.0782516897
2284.67802	0.0781927407
2283.24831	0.0781306326
2281.81860	0.0780655071
2280.38889	0.0779956430
2278.95918	0.0779217929
2277.52947	0.0778477117
2276.09975	0.0777772665
2274.67004	0.0777116641
2273.24033	0.0776506513
2271.81062	0.0775953680
2270.38091	0.0775488541
2268.95120	0.0775133893
2267.52149	0.0774865001
2266.09178	0.0774605125
2264.66207	0.0774262622
2263.23236	0.0773793310
2261.80265	0.0773236528
2260.37293	0.0772687495
2258.94322	0.0772223324
2257.51351	0.0771845803
2256.08380	0.0771493316
2254.65409	0.0771107450
2253.22438	0.0770695060
2251.79467	0.0770323798
2250.36496	0.0770050287
2248.93525	0.0769866407
2247.50554	0.0769701004
2246.07583	0.0769465864
2244.64611	0.0769109204
2243.21640	0.0768626556
2241.78669	0.0768053755
2240.35698	0.0767455399
2238.92727	0.0766906515
2237.49756	0.0766461194
2236.06785	0.0766122714
2234.63814	0.0765847638
2233.20843	0.0765564740
2231.77872	0.0765222088
2230.34901	0.0764801577
2228.91929	0.0764311403
2227.48958	0.0763768777
2226.05987	0.0763183013
2224.63016	0.0762554184
2223.20045	0.0761884972
2221.77074	0.0761189088
2220.34103	0.0760513619
2218.91132	0.0759930462
2217.48161	0.0759497881
2216.05190	0.0759215429
2214.62219	0.0759004876
2213.19247	0.0758745596
2211.76276	0.0758332536
2210.33305	0.0757732093
2208.90334	0.0757000521
2207.47363	0.0756259486
2206.04392	0.0755622387
2204.61421	0.0755134746
2203.18450	0.0754748210
2201.75479	0.0754361078
2200.32508	0.0753903463
2198.89537	0.0753383413
2197.46565	0.0752866119
2196.03594	0.0752395466
2194.60623	0.0751949474
2193.17652	0.0751464665
2191.74681	0.0750900581
2190.31710	0.0750278160
2188.88739	0.0749662220
2187.45768	0.0749102682
2186.02797	0.0748600066
2184.59826	0.0748117566
2183.16855	0.0747613907
2181.73883	0.0747073665
2180.30912	0.0746514425
2178.87941	0.0745969117
2177.44970	0.0745457709
2176.01999	0.0744960457
2174.59028	0.0744431317
2173.16057	0.0743822381
2171.73086	0.0743119493
2170.30115	0.0742341876
2168.87144	0.0741523802
2167.44173	0.0740690157
2166.01202	0.0739856437
2164.58230	0.0739053562
2163.15259	0.0738327876
2161.72288	0.0737723485
2160.29317	0.0737233832
2158.86346	0.0736794323
2157.43375	0.0736306682
2156.00404	0.0735706836
2154.57433	0.0735010505
2153.14462	0.0734297410
2151.71491	0.0733650923
2150.28520	0.0733084604
2148.85548	0.0732532665
2147.42577	0.0731894150
2145.99606	0.0731125847
2144.56635	0.0730276778
2143.13664	0.0729454830
2141.70693	0.0728748515
2140.27722	0.0728172958
2138.84751	0.0727680773
2137.41780	0.0727207586
2135.98809	0.0726717338
2134.55838	0.0726206973
2133.12866	0.0725688338
2131.69895	0.0725174695
2130.26924	0.0724673644
2128.83953	0.0724191964
2127.40982	0.0723725557
2125.98011	0.0723255873
2124.55040	0.0722747445
2123.12069	0.0722165704
2121.69098	0.0721499026
2120.26127	0.0720770732
2118.83156	0.0720032454
2117.40184	0.0719329789
2115.97213	0.0718695968
2114.54242	0.0718143135
2113.11271	0.0717665479
2111.68300	0.0717252344
2110.25329	0.0716876835
2108.82358	0.0716476813
2107.39387	0.0715963989
2105.96416	0.0715262592
2104.53445	0.0714357123
2103.10474	0.0713323429
2101.67502	0.0712299719
2100.24531	0.0711420551
2098.81560	0.0710757673
2097.38589	0.0710297003
2095.95618	0.0709965900
2094.52647	0.0709680915
2093.09676	0.0709380358
2091.66705	0.0709036887
2090.23734	0.0708643496
2088.80763	0.0708201304
2087.37792	0.0707713217
2085.94820	0.0707188249
2084.51849	0.0706636608
2083.08878	0.0706064627
2081.65907	0.0705467686
2080.22936	0.0704840794
2078.79965	0.0704184994
2077.36994	0.0703510717
2075.94023	0.0702841133
2074.51052	0.0702174380
2073.08081	0.0701488256
2071.65110	0.0700762421
2070.22138	0.0700011179
2068.79167	0.0699295625
2067.36196	0.0698675886
2065.93225	0.0698150843
2064.50254	0.0697645321
2063.07283	0.0697068721
2061.64312	0.0696392879
2060.21341	0.0695685819
2058.78370	0.0695056915
2057.35399	0.0694562942
2055.92428	0.0694169328
2054.49456	0.0693783611
2053.06485	0.0693333521
2051.63514	0.0692811012
2050.20543	0.0692256615
2048.77572	0.0691707432
2047.34601	0.0691154078
2045.91630	0.0690553486
2044.48659	0.0689870119
2043.05688	0.0689118579
2041.62717	0.0688360482
2040.19746	0.0687671751
2038.76774	0.0687093437
2037.33803	0.0686611012
2035.90832	0.0686176270
2034.47861	0.0685749426
2033.04890	0.0685318038
2031.61919	0.0684898868
2030.18948	0.0684513077
2028.75977	0.0684170648
2027.33006	0.0683858544
2025.90035	0.0683539510
2024.47064	0.0683161989
2023.04092	0.0682677925
2021.61121	0.0682070255
2020.18150	0.0681363419
2018.75179	0.0680612773
2017.32208	0.0679880083
2015.89237	0.0679211095
2014.46266	0.0678622425
2013.03295	0.0678109229
2011.60324	0.0677662864
2010.17353	0.0677282289
2008.74382	0.0676966980
2007.31411	0.0676694438
2005.88439	0.0676409528
2004.45468	0.0676051378
2003.02497	0.0675589219
2001.59526	0.0675047934
2000.16555	0.0674476475
1998.73584	0.0673911050
1997.30613	0.0673363656
1995.87642	0.0672859177
1994.44671	0.0672468990
1993.01700	0.0672265589
1991.58729	0.0672252625
1990.15757	0.0672327876
1988.72786	0.0672352016
1987.29815	0.0672258064
1985.86844	0.0672096387
1984.43873	0.0671982169
1983.00902	0.0672001764
1981.57931	0.0672152564
1980.14960	0.0672344491
1978.71989	0.0672461092
1977.29018	0.0672431514
1975.86047	0.0672276765
1974.43075	0.0672094896
1973.00104	0.0671988204
1971.57133	0.0671979710
1970.14162	0.0671997592
1968.71191	0.0671941042
1967.28220	0.0671776980
1965.85249	0.0671568513
1964.42278	0.0671417713
1962.99307	0.0671388432
1961.56336	0.0671479031
1960.13365	0.0671647638
1958.70393	0.0671852529
1957.27422	0.0672059506
1955.84451	0.0672247484
1954.41480	0.0672402233
1952.98509	0.0672513098
1951.55538	0.0672553629
1950.12567	0.0672478080
1948.69596	0.0672254711
1947.26625	0.0671910197
1945.83654	0.0671551600
1944.40683	0.0671321973
1942.97711	0.0671324953
1941.54740	0.0671569705
1940.11769	0.0671971291
1938.68798	0.0672414303
1937.25827	0.0672800541
1935.82856	0.0673095211
1934.39885	0.0673317984
1932.96914	0.0673513561
1931.53943	0.0673703700
1930.10972	0.0673868433
1928.68001	0.0673964322
1927.25029	0.0673986673
1925.82058	0.0673979670
1924.39087	0.0674006343
1922.96116	0.0674122423
1921.53145	0.0674373358
1920.10174	0.0674803630
1918.67203	0.0675436780
1917.24232	0.0676230714
1915.81261	0.0677062646
1914.38290	0.0677795410
1912.95319	0.0678344294
1911.52347	0.0678695962
1910.09376	0.0678889081
1908.66405	0.0678994432
1907.23434	0.0679091588
1905.80463	0.0679256245
1904.37492	0.0679528937
1902.94521	0.0679903105
1901.51550	0.0680338740
1900.08579	0.0680789873
1898.65608	0.0681209564
1897.22637	0.0681545734
1895.79665	0.0681770444
1894.36694	0.0681913123
1892.93723	0.0682065412
1891.50752	0.0682330802
1890.07781	0.0682755485
1888.64810	0.0683314353
1887.21839	0.0683959723
1885.78868	0.0684668571
1884.35897	0.0685438067
1882.92926	0.0686246008
1881.49955	0.0687038526
1880.06983	0.0687754229
1878.64012	0.0688343495
1877.21041	0.0688763931
1875.78070	0.0688984767
1874.35099	0.0689013898
1872.92128	0.0688939318
1871.49157	0.0688931420
1870.06186	0.0689205006
1868.63215	0.0689908341
1867.20244	0.0691018105
1865.77273	0.0692344904
1864.34301	0.0693646371
1862.91330	0.0694767982
1861.48359	0.0695701614
1860.05388	0.0696545392
1858.62417	0.0697410107
1857.19446	0.0698322058
1855.76475	0.0699208602
1854.33504	0.0699969232
1852.90533	0.0700543746
1851.47562	0.0700918213
1850.04591	0.0701090693
1848.61619	0.0701099485
1847.18648	0.0701086447
1845.75677	0.0701303631
1844.32706	0.0701979324
1842.89735	0.0703117475
1841.46764	0.0704489425
1840.03793	0.0705820397
1838.60822	0.0706942454
1837.17851	0.0707794279
1835.74880	0.0708386898
1834.31909	0.0708816871
1832.88938	0.0709267929
1831.45966	0.0709944591
1830.02995	0.0710942149
1828.60024	0.0712190866
1827.17053	0.0713550076
1825.74082	0.0714947954
1824.31111	0.0716398060
1822.88140	0.0717915893
1821.45169	0.0719459355
1820.02198	0.0720961094
1818.59227	0.0722351223
1817.16256	0.0723560750
1815.73284	0.0724523813
1814.30313	0.0725253597
1812.87342	0.0725900382
1811.44371	0.0726693198
1810.01400	0.0727765560
1808.58429	0.0729039386
1807.15458	0.0730317831
1805.72487	0.0731470734
1804.29516	0.0732510313
1802.86545	0.0733526498
1801.43574	0.0734585896
1800.00602	0.0735697895
1798.57631	0.0736856610
1797.14660	0.0738075376
1795.71689	0.0739421546
1794.28718	0.0741037428
1792.85747	0.0743096471
1791.42776	0.0745648891
1789.99805	0.0748490319
1788.56834	0.0751263425
1787.13863	0.0753697157
1785.70892	0.0755728930
1784.27920	0.0757435635
1782.84949	0.0758916736
1781.41978	0.0760239735
1779.99007	0.0761456192
1778.56036	0.0762628838
1777.13065	0.0763802081
1775.70094	0.0765005350
1774.27123	0.0766357109
1772.84152	0.0768136606
1771.41181	0.0770637244
1769.98210	0.0773808435
1768.55238	0.0777208880
1767.12267	0.0780399442
1765.69296	0.0783271119
1764.26325	0.0786022544
1762.83354	0.0788948536
1761.40383	0.0792270154
1759.97412	0.0796063170
1758.54441	0.0800263733
1757.11470	0.0804684609
1755.68499	0.0809095055
1754.25528	0.0813405067
1752.82556	0.0817843080
1751.39585	0.0822905377
1749.96614	0.0828972906
1748.53643	0.0835895464
1747.10672	0.0843121707
1745.67701	0.0850233808
1744.24730	0.0857161358
1742.81759	0.0863889009
1741.38788	0.0870196596
1739.95817	0.0875808001
1738.52846	0.0880777612
1737.09874	0.0885683447
1735.66903	0.0891395658
1734.23932	0.0898539498
1732.80961	0.0907017067
1731.37990	0.0916148573
1729.95019	0.0925362781
1728.52048	0.0934586003
1727.09077	0.0944029242
1725.66106	0.0953850299
1724.23135	0.0964005440
1722.80164	0.0974393412
1721.37192	0.0985235944
1719.94221	0.0997426361
1718.51250	0.1012296230
1717.08279	0.1030292213
1715.65308	0.1049667969
1714.22337	0.1067726538
1712.79366	0.1083335429
1711.36395	0.1097291186
1709.93424	0.1111047938
1708.50453	0.1125766411
1707.07482	0.1142102182
1705.64510	0.1160523966
1704.21539	0.1181871071
1702.78568	0.1207717508
1701.35597	0.1240078434
1699.92626	0.1280006319
1698.49655	0.1325554550
1697.06684	0.1371665746
1695.63713	0.1413423866
1694.20742	0.1448926777
1692.77771	0.1478867382
1691.34800	0.1504934132
1689.91828	0.1529140770
1688.48857	0.1554107070
1687.05886	0.1583348066
1685.62915	0.1620042175
1684.19944	0.1663455069
1682.76973	0.1707324982
1681.34002	0.1745349318
1679.91031	0.1776712388
1678.48060	0.1804645509
1677.05089	0.1832696050
1675.62118	0.1862830222
1674.19147	0.1895419955
1672.76175	0.1930219829
1671.33204	0.1966992170
1669.90233	0.2004960328
1668.47262	0.2042407691
1667.04291	0.2077832371
1665.61320	0.2111335546
1664.18349	0.2144080997
1662.75378	0.2176203281
1661.32407	0.2205568701
1659.89436	0.2229113132
1658.46465	0.2245169133
1657.03493	0.2254050076
1655.60522	0.2256831825
1654.17551	0.2254000157
1652.74580	0.2245353162
1651.31609	0.2231173515
1649.88638	0.2212641090
1648.45667	0.2190986127
1647.02696	0.2167355865
1645.59725	0.2143332213
1644.16754	0.2120532244
1642.73783	0.2099524140
1641.30811	0.2079565674
1639.87840	0.2059270591
1638.44869	0.2037413418
1637.01898	0.2013669610
1635.58927	0.1988994032
1634.15956	0.1964690387
1632.72985	0.1940838695
1631.30014	0.1916117221
1629.87043	0.1888677627
1628.44072	0.1856695116
1627.01101	0.1818783432
1625.58129	0.1774809361
1624.15158	0.1726516485
1622.72187	0.1676636040
1621.29216	0.1626899093
1619.86245	0.1577115953
1618.43274	0.1526350379
1617.00303	0.1475094855
1615.57332	0.1426127702
1614.14361	0.1382527202
1612.71390	0.1345120072
1611.28419	0.1312445253
1609.85447	0.1282647699
1608.42476	0.1254951507
1606.99505	0.1229751557
1605.56534	0.1207702160
1604.13563	0.1188911051
1602.70592	0.1172973812
1601.27621	0.1159468070
1599.84650	0.1148161739
1598.41679	0.1138829738
1596.98708	0.1131148860
1595.55737	0.1124868169
1594.12765	0.1119983271
1592.69794	0.1116630062
1591.26823	0.1114835516
1589.83852	0.1114484817
1588.40881	0.1115515828
1586.97910	0.1117992103
1585.54939	0.1121892929
1584.11968	0.1126904115
1582.68997	0.1132576242
1581.26026	0.1138741598
1579.83055	0.1145777032
1578.40083	0.1154378280
1576.97112	0.1164884344
1575.54141	0.1176742092
1574.11170	0.1188957691
1572.68199	0.1201181486
1571.25228	0.1214018315
1569.82257	0.1228192300
1568.39286	0.1243483871
1566.96315	0.1258589774
1565.53344	0.1272257119
1564.10373	0.1284521818
1562.67401	0.1297145188
1561.24430	0.1313415766
1559.81459	0.1336700767
1558.38488	0.1366409212
1556.95517	0.1395990700
1555.52546	0.1419416368
1554.09575	0.1436228305
1552.66604	0.1448573768
1551.23633	0.1457825452
1549.80662	0.1464003474
1548.37691	0.1466540098
1546.94719	0.1465090066
1545.51748	0.1459723264
1544.08777	0.1450573206
1542.65806	0.1437686682
1541.22835	0.1421800256
1539.79864	0.1404988468
1538.36893	0.1389119625
1536.93922	0.1374146491
1535.50951	0.1358852088
1534.07980	0.1342310011
1532.65009	0.1324482262
1531.22037	0.1305954009
1529.79066	0.1287247390
1528.36095	0.1268413812
1526.93124	0.1249221712
1525.50153	0.1229624450
1524.07182	0.1210008189
1522.64211	0.1191018149
1521.21240	0.1173131838
1519.78269	0.1156334206
1518.35298	0.1140146554
1516.92327	0.1123898700
1515.49356	0.1107039899
1514.06384	0.1089229286
1512.63413	0.1070070714
1511.20442	0.1048644930
1509.77471	0.1023423299
1508.34500	0.0993691310
1506.91529	0.0962353274
1505.48558	0.0935278460
1504.05587	0.0915435478
1502.62616	0.0900982618
1501.19645	0.0888714567
1499.76674	0.0876530483
1498.33702	0.0863913298
1496.90731	0.0851539001
1495.47760	0.0840299726
1494.04789	0.0830396786
1492.61818	0.0821390152
1491.18847	0.0812871233
1489.75876	0.0804975033
1488.32905	0.0798347294
1486.89934	0.0793591589
1485.46963	0.0790770799
1484.03992	0.0789508894
1482.61020	0.0789379478
1481.18049	0.0790124908
1479.75078	0.0791679621
1478.32107	0.0794164985
1476.89136	0.0797929168
1475.46165	0.0803512409
1474.03194	0.0811184123
1472.60223	0.0820211545
1471.17252	0.0828920901
1469.74281	0.0835892633
1468.31310	0.0840767771
1466.88338	0.0843972340
1465.45367	0.0846142471
1464.02396	0.0847769603
1462.59425	0.0849137008
1461.16454	0.0850506425
1459.73483	0.0852288604
1458.30512	0.0854869410
1456.87541	0.0857986659
1455.44570	0.0860487893
1454.01599	0.0861260816
1452.58628	0.0860069096
1451.15656	0.0857290626
1449.72685	0.0853419229
1448.29714	0.0848902836
1446.86743	0.0844148770
1445.43772	0.0839433149
1444.00801	0.0834792331
1442.57830	0.0830021054
1441.14859	0.0824809894
1439.71888	0.0818931982
1438.28917	0.0812458917
1436.85946	0.0805901065
1435.42974	0.0800042152
1434.00003	0.0795501620
1432.57032	0.0792470872
1431.14061	0.0790880173
1429.71090	0.0790611804
1428.28119	0.0791545138
1426.85148	0.0793498680
1425.42177	0.0796250030
1423.99206	0.0799653456
1422.56235	0.0803750977
1421.13264	0.0808717981
1419.70292	0.0814622417
1418.27321	0.0821142420
1416.84350	0.0827628151
1415.41379	0.0833554193
1413.98408	0.0838824883
1412.55437	0.0843672454
1411.12466	0.0848379433
1409.69495	0.0853080526
1408.26524	0.0857724920
1406.83553	0.0862143114
1405.40582	0.0866106972
1403.97610	0.0869342685
1402.54639	0.0871550515
1401.11668	0.0872483030
1399.68697	0.0872039348
1398.25726	0.0870300308
1396.82755	0.0867504179
1395.39784	0.0863965750
1393.96813	0.0859941617
1392.53842	0.0855498239
1391.10871	0.0850491598
1389.67900	0.0844687372
1388.24928	0.0837961435
1386.81957	0.0830462277
1385.38986	0.0822580010
1383.96015	0.0814699531
1382.53044	0.0807002261
1381.10073	0.0799505338
1379.67102	0.0792250857
1378.24131	0.0785418898
1376.81160	0.0779297277
1375.38189	0.0774155259
1373.95218	0.0770122632
1372.52246	0.0767112821
1371.09275	0.0764844492
1369.66304	0.0762931556
1368.23333	0.0761012957
1366.80362	0.0758886784
1365.37391	0.0756600872
1363.94420	0.0754435286
1362.51449	0.0752756223
1361.08478	0.0751801431
1359.65507	0.0751565322
1358.22536	0.0751871541
1356.79565	0.0752512738
1355.36593	0.0753329843
1353.93622	0.0754209235
1352.50651	0.0755055249
1351.07680	0.0755788088
1349.64709	0.0756331831
1348.21738	0.0756626129
1346.78767	0.0756626427
1345.35796	0.0756344497
1343.92825	0.0755863562
1342.49854	0.0755346343
1341.06883	0.0755018592
1339.63911	0.0755086690
1338.20940	0.0755633116
1336.77969	0.0756561384
1335.34998	0.0757693276
1333.92027	0.0758927837
1332.49056	0.0760335997
1331.06085	0.0762093812
1329.63114	0.0764344707
1328.20143	0.0767072067
1326.77172	0.0770100951
1325.34201	0.0773195699
1323.91229	0.0776176825
1322.48258	0.0778987184
1321.05287	0.0781676099
1319.62316	0.0784359798
1318.19345	0.0787142217
1316.76374	0.0790044516
1315.33403	0.0792975128
1313.90432	0.0795776770
1312.47461	0.0798314288
1311.04490	0.0800535753
1309.61519	0.0802480653
1308.18547	0.0804238170
1306.75576	0.0805922002
1305.32605	0.0807632953
1303.89634	0.0809425637
1302.46663	0.0811279938
1301.03692	0.0813106298
1299.60721	0.0814811289
1298.17750	0.0816356167
1296.74779	0.0817752779
1295.31808	0.0819010735
1293.88837	0.0820096806
1292.45865	0.0820971653
1291.02894	0.0821634680
1289.59923	0.0822154284
1288.16952	0.0822631642
1286.73981	0.0823156312
1285.31010	0.0823778063
1283.88039	0.0824507251
1282.45068	0.0825318545
1281.02097	0.0826158822
1279.59126	0.0826987326
1278.16155	0.0827833265
1276.73183	0.0828824416
1275.30212	0.0830154493
1273.87241	0.0832004249
1272.44270	0.0834471360
1271.01299	0.0837576240
1269.58328	0.0841291845
1268.15357	0.0845592394
1266.72386	0.0850473344
1265.29415	0.0855956301
1263.86444	0.0862083435
1262.43473	0.0868873745
1261.00501	0.0876265317
1259.57530	0.0884087086
1258.14559	0.0892080963
1256.71588	0.0899979994
1255.28617	0.0907543078
1253.85646	0.0914550945
1252.42675	0.0920763016
1250.99704	0.0925915092
1249.56733	0.0929764435
1248.13762	0.0932152122
1246.70791	0.0933021307
1245.27819	0.0932415798
1243.84848	0.0930453315
1242.41877	0.0927309915
1240.98906	0.0923212916
1239.55935	0.0918412954
1238.12964	0.0913141370
1236.69993	0.0907582045
1235.27022	0.0901868269
1233.84051	0.0896075740
1232.41080	0.0890235677
1230.98109	0.0884320661
1229.55137	0.0878268480
1228.12166	0.0872033983
1226.69195	0.0865625739
1225.26224	0.0859110281
1223.83253	0.0852566734
1222.40282	0.0846034586
1220.97311	0.0839489028
1219.54340	0.0832887515
1218.11369	0.0826223344
1216.68398	0.0819573104
1215.25427	0.0813077539
1213.82455	0.0806899741
1212.39484	0.0801161155
1210.96513	0.0795923844
1209.53542	0.0791207477
1208.10571	0.0787046328
1206.67600	0.0783514827
1205.24629	0.0780715793
1203.81658	0.0778736994
1202.38687	0.0777620375
1200.95716	0.0777373910
1199.52745	0.0777997151
1198.09774	0.0779502317
1196.66802	0.0781905130
1195.23831	0.0785193667
1193.80860	0.0789322630
1192.37889	0.0794224665
1190.94918	0.0799820572
1189.51947	0.0806017965
1188.08976	0.0812700167
1186.66005	0.0819739699
1185.23034	0.0827044994
1183.80063	0.0834628567
1182.37092	0.0842642710
1180.94120	0.0851320699
1179.51149	0.0860856473
1178.08178	0.0871272087
1176.65207	0.0882367641
1175.22236	0.0893789306
1173.79265	0.0905171856
1172.36294	0.0916285738
1170.93323	0.0927095190
1169.50352	0.0937730819
1168.07381	0.0948404148
1166.64410	0.0959315225
1165.21438	0.0970587134
1163.78467	0.0982237011
1162.35496	0.0994179770
1160.92525	0.1006254107
1159.49554	0.1018284857
1158.06583	0.1030139029
1156.63612	0.1041762009
1155.20641	0.1053168476
1153.77670	0.1064396873
1152.34699	0.1075487956
1150.91728	0.1086513400
1149.48756	0.1097624451
1148.05785	0.1109071821
1146.62814	0.1121137887
1145.19843	0.1134031340
1143.76872	0.1147823855
1142.33901	0.1162486076
1140.90930	0.1178005263
1139.47959	0.1194458976
1138.04988	0.1211987659
1136.62017	0.1230667010
1135.19046	0.1250400096
1133.76074	0.1270915568
1132.33103	0.1291878074
1130.90132	0.1313036680
1129.47161	0.1334288120
1128.04190	0.1355623007
1126.61219	0.1377020776
1125.18248	0.1398385763
1123.75277	0.1419576705
1122.32306	0.1440514922
1120.89335	0.1461227685
1119.46364	0.1481786966
1118.03392	0.1502188742
1116.60421	0.1522286087
1115.17450	0.1541872919
1113.74479	0.1560840458
1112.31508	0.1579255164
1110.88537	0.1597271860
1109.45566	0.1614921391
1108.02595	0.1631946266
1106.59624	0.1647832245
1105.16653	0.1662012190
1103.73682	0.1674130112
1102.30710	0.1684215367
1100.87739	0.1692656875
1099.44768	0.1700012684
1098.01797	0.1706745923
1096.58826	0.1713031828
1095.15855	0.1718749255
1093.72884	0.1723630577
1092.29913	0.1727438122
1090.86942	0.1730049700
1089.43971	0.1731390804
1088.01000	0.1731331348
1086.58028	0.1729640663
1085.15057	0.1726066917
1083.72086	0.1720453352
1082.29115	0.1712803692
1080.86144	0.1703266501
1079.43173	0.1692041159
1078.00202	0.1679303795
1076.57231	0.1665179431
1075.14260	0.1649780273
1073.71289	0.1633253992
1072.28318	0.1615799665
1070.85346	0.1597590894
1069.42375	0.1578711569
1067.99404	0.1559153646
1066.56433	0.1538884938
1065.13462	0.1517926157
1063.70491	0.1496324688
1062.27520	0.1474053115
1060.84549	0.1450940520
1059.41578	0.1426734924
1057.98607	0.1401271820
1056.55636	0.1374587417
1055.12664	0.1346909404
1053.69693	0.1318559647
1052.26722	0.1289867163
1050.83751	0.1261161715
1049.40780	0.1232804433
1047.97809	0.1205183417
1046.54838	0.1178640574
1045.11867	0.1153369099
1043.68896	0.1129377484
1042.25925	0.1106539592
1040.82954	0.1084723845
1039.39983	0.1063899174
1037.97011	0.1044156402
1036.54040	0.1025614142
1035.11069	0.1008297876
1033.68098	0.0992084071
1032.25127	0.0976758674
1030.82156	0.0962138474
1029.39185	0.0948159397
1027.96214	0.0934878439
1026.53243	0.0922404528
1025.10272	0.0910840482
1023.67301	0.0900259614
1022.24329	0.0890748873
1020.81358	0.0882450417
1019.38387	0.0875577778
1017.95416	0.0870376900
1016.52445	0.0867053196
1015.09474	0.0865704790
1013.66503	0.0866297558
1012.23532	0.0868714675
1010.80561	0.0872839019
1009.37590	0.0878613889
1007.94619	0.0886023715
1006.51647	0.0895024016
1005.08676	0.0905468389
1003.65705	0.0917109549
1002.22734	0.0929661244
1000.79763	0.0942848697
999.36792	0.0956410244
997.93821	0.0970027819
996.50850	0.0983264297
995.07879	0.0995557308
993.64908	0.1006266847
992.21937	0.1014763638
990.78965	0.1020529121
989.35994	0.1023256183
987.93023	0.1022911146
986.50052	0.1019732282
985.07081	0.1014131978
983.64110	0.1006547213
982.21139	0.0997303948
980.78168	0.0986569971
979.35197	0.0974392146
977.92226	0.0960787013
976.49255	0.0945836604
975.06283	0.0929764435
973.63312	0.0912957713
972.20341	0.0895919874
970.77370	0.0879139379
969.34399	0.0862957090
967.91428	0.0847516283
966.48457	0.0832833871
965.05486	0.0818939433
963.62515	0.0805957168
962.19544	0.0794073343
960.76573	0.0783426166
959.33601	0.0774028376
957.90630	0.0765774101
956.47659	0.0758516267
955.04688	0.0752144903
953.61717	0.0746626928
952.18746	0.0741990805
950.75775	0.0738292262
949.32804	0.0735561475
947.89833	0.0733759478
946.46862	0.0732739493
945.03891	0.0732271895
943.60919	0.0732102469
942.17948	0.0732021257
940.74977	0.0731894448
939.32006	0.0731634945
937.89035	0.0731168687
936.46064	0.0730423182
935.03093	0.0729361773
933.60122	0.0728002489
932.17151	0.0726388395
930.74180	0.0724529624
929.31209	0.0722387582
927.88237	0.0719919130
926.45266	0.0717163533
925.02295	0.0714268610
923.59324	0.0711433068
922.16353	0.0708790645
920.73382	0.0706334785
919.30411	0.0703912526
917.87440	0.0701294765
916.44469	0.0698281899
915.01498	0.0694806576
913.58527	0.0690985024
912.15555	0.0687097088
910.72584	0.0683481917
909.29613	0.0680412054
907.86642	0.0678027198
906.43671	0.0676350221
905.00700	0.0675356686
903.57729	0.0675036758
902.14758	0.0675401464
900.71787	0.0676477551
899.28816	0.0678320155
897.85845	0.0681023076
896.42873	0.0684702843
894.99902	0.0689409822
893.56931	0.0695059299
892.13960	0.0701407045
890.70989	0.0708128512
889.28018	0.0714916214
887.85047	0.0721551254
886.42076	0.0727893189
884.99105	0.0733838230
883.56134	0.0739291161
882.13163	0.0744185820
880.70192	0.0748538002
879.27220	0.0752480701
877.84249	0.0756237581
876.41278	0.0760016814
874.98307	0.0763890073
873.55336	0.0767737105
872.12365	0.0771315843
870.69394	0.0774400234
869.26423	0.0776894689
867.83452	0.0778823048
866.40481	0.0780213550
864.97510	0.0780993402
863.54538	0.0780984387
862.11567	0.0779994801
860.68596	0.0777896866
859.25625	0.0774674118
857.82654	0.0770405084
856.39683	0.0765256658
854.96712	0.0759465769
853.53741	0.0753311962
852.10770	0.0747036487
850.67799	0.0740765706
849.24828	0.0734502152
847.81856	0.0728183091
846.38885	0.0721802562
844.95914	0.0715491176
843.52943	0.0709499866
842.09972	0.0704089999
840.67001	0.0699395612
839.24030	0.0695357025
837.81059	0.0691765100
836.38088	0.0688368678
834.95117	0.0684953481
833.52146	0.0681352243
832.09174	0.0677407533
830.66203	0.0672992766
829.23232	0.0668085217
827.80261	0.0662839115
826.37290	0.0657556579
824.94319	0.0652563870
823.51348	0.0648072064
822.08377	0.0644140989
820.65406	0.0640748590
819.22435	0.0637882054
817.79464	0.0635573193
816.36492	0.0633847490
814.93521	0.0632647425
813.50550	0.0631801262
812.07579	0.0631059408
810.64608	0.0630202219
809.21637	0.0629139245
807.78666	0.0627958402
806.35695	0.0626860186
804.92724	0.0626026466
803.49753	0.0625499412
802.06782	0.0625149608
800.63810	0.0624762513
799.20839	0.0624171309
797.77868	0.0623389818
796.34897	0.0622647628
794.91926	0.0622279570
793.48955	0.0622557700
792.05984	0.0623492338
790.63013	0.0624819882
789.20042	0.0626135916
787.77071	0.0627116188
786.34100	0.0627653599
784.91128	0.0627841204
783.48157	0.0627851039
782.05186	0.0627819970
780.62215	0.0627816916
779.19244	0.0627858266
777.76273	0.0627949461
776.33302	0.0628117248
774.90331	0.0628414303
773.47360	0.0628895983
772.04389	0.0629582405
770.61418	0.0630436242
769.18446	0.0631367788
767.75475	0.0632285103
766.32504	0.0633139461
764.89533	0.0633951426
763.46562	0.0634803772
762.03591	0.0635807216
760.60620	0.0637027621
759.17649	0.0638413951
757.74678	0.0639782697
756.31707	0.0640920252
754.88736	0.0641742945
753.45764	0.0642386079
752.02793	0.0643105879
750.59822	0.0644052103
749.16851	0.0645116866
747.73880	0.0645974353
746.30909	0.0646295473
744.87938	0.0645981282
743.44967	0.0645241216
742.01996	0.0644482076
740.59025	0.0644100755
739.16054	0.0644309744
737.73082	0.0645092875
736.30111	0.0646296665
734.87140	0.0647787824
733.44169	0.0649550930
732.01198	0.0651675612
730.58227	0.0654267222
729.15256	0.0657348782
727.72285	0.0660827979
726.29314	0.0664505139
724.86343	0.0668126568
723.43372	0.0671465173
722.00401	0.0674420223
720.57429	0.0677064136
719.14458	0.0679602772
717.71487	0.0682247803
716.28516	0.0685108900
714.85545	0.0688164607
713.42574	0.0691305548
711.99603	0.0694381669
710.56632	0.0697229803
709.13661	0.0699707046
707.70690	0.0701754838
706.27719	0.0703436732
704.84747	0.0704902858
703.41776	0.0706297010
701.98805	0.0707660168
700.55834	0.0708880574
699.12863	0.0709720552
697.69892	0.0709901005
696.26921	0.0709221587
694.83950	0.0707678199
693.40979	0.0705505759
691.98008	0.0703133345
690.55037	0.0701077878
689.12065	0.0699797943
687.69094	0.0699548870
686.26123	0.0700253546
684.83152	0.0701479167
683.40181	0.0702629909
681.97210	0.0703280941
680.54239	0.0703454688
679.11268	0.0703542084
677.68297	0.0703912228
676.25326	0.0704536587
674.82355	0.0705013126
673.39383	0.0704947338
671.96412	0.0704360306
670.53441	0.0703858659
669.10470	0.0704385266
667.67499	0.0706426725
666.24528	0.0709331632
664.81557	0.0711857229
663.38586	0.0713193789
661.95615	0.0713223070
660.52644	0.0712313801
659.09673	0.0711092427
657.66701	0.0710197017
656.23730	0.0709955245
654.80759	0.0710221380
653.37788	0.0710522011
651.94817	0.0710395500
650.51846	0.0709655955
649.08875	0.0708448738
647.65904	0.0707113966
646.22933	0.0705972314
644.79962	0.0705195814
643.36991	0.0704784468
641.94019	0.0704640448
640.51048	0.0704624578
639.08077	0.0704595372
637.65106	0.0704414546
636.22135	0.0703946650
634.79164	0.0703065172
633.36193	0.0701625198
631.93222	0.0699429363
630.50251	0.0696230009
629.07280	0.0691816434
627.64309	0.0686145648
626.21337	0.0679432377
624.78366	0.0672141388
623.35395	0.0664879531
621.92424	0.0658286139
620.49453	0.0652966723
619.06482	0.0649387389
617.63511	0.0647630990
616.20540	0.0647258386
614.77569	0.0647465661
613.34598	0.0647482499
611.91627	0.0646903217
610.48655	0.0645771027
609.05684	0.0644434020
607.62713	0.0643367022
606.19742	0.0643016398
604.76771	0.0643672645
603.33800	0.0645390451
601.90829	0.0647987351
600.47858	0.0651121959
599.04887	0.0654400811
