3997.47168	0.0433152243
3996.04197	0.0432862528
3994.61226	0.0432727262
3993.18255	0.0432952903
3991.75284	0.0433680825
3990.32312	0.0434910692
3988.89341	0.0436446890
3987.46370	0.0437895730
3986.03399	0.0438798293
3984.60428	0.0438850150
3983.17457	0.0438097864
3981.74486	0.0436925478
3980.31515	0.0435849279
3978.88544	0.0435219705
3977.45573	0.0435101837
3976.02602	0.0435331017
3974.59630	0.0435685292
3973.16659	0.0436007567
3971.73688	0.0436224490
3970.30717	0.0436294898
3968.87746	0.0436210744
3967.44775	0.0435986370
3966.01804	0.0435677283
3964.58833	0.0435359366
3963.15862	0.0435113572
3961.72891	0.0435018279
3960.29920	0.0435120724
3958.86948	0.0435377099
3957.43977	0.0435625501
3956.01006	0.0435642079
3954.58035	0.0435286388
3953.15064	0.0434622280
3951.72093	0.0433910228
3950.29122	0.0433444567
3948.86151	0.0433356166
3947.43180	0.0433561541
3946.00209	0.0433885343
3944.57238	0.0434241220
3943.14266	0.0434674658
3941.71295	0.0435231179
3940.28324	0.0435815230
3938.85353	0.0436190739
3937.42382	0.0436141491
3935.99411	0.0435630344
3934.56440	0.0434831157
3933.13469	0.0434032381
3931.70498	0.0433463715
3930.27527	0.0433190838
3928.84556	0.0433131084
3927.41585	0.0433167703
3925.98613	0.0433233194
3924.55642	0.0433296114
3923.12671	0.0433381349
3921.69700	0.0433565825
3920.26729	0.0433970876
3918.83758	0.0434680656
3917.40787	0.0435635783
3915.97816	0.0436602309
3914.54845	0.0437256396
3913.11874	0.0437324271
3911.68903	0.0436647832
3910.25931	0.0435180217
3908.82960	0.0432983488
3907.39989	0.0430292524
3905.97018	0.0427599512
3904.54047	0.0425633565
3903.11076	0.0425125100
3901.68105	0.0426275730
3900.25134	0.0428493954
3898.82163	0.0430770740
3897.39192	0.0432352908
3895.96221	0.0433021821
3894.53249	0.0432986356
3893.10278	0.0432671756
3891.67307	0.0432500206
3890.24336	0.0432670638
3888.81365	0.0433073007
3887.38394	0.0433408804
3885.95423	0.0433440246
3884.52452	0.0433152243
3883.09481	0.0432740711
3881.66510	0.0432438143
3880.23539	0.0432302319
3878.80567	0.0432182476
3877.37596	0.0431875102
3875.94625	0.0431301594
3874.51654	0.0430583507
3873.08683	0.0429967828
3871.65712	0.0429631472
3870.22741	0.0429541729
3868.79770	0.0429523736
3867.36799	0.0429530293
3865.93828	0.0429754071
3864.50857	0.0430417433
3863.07885	0.0431443676
3861.64914	0.0432360657
3860.21943	0.0432557948
3858.78972	0.0431635529
3857.36001	0.0429608040
3855.93030	0.0427112505
3854.50059	0.0425546765
3853.07088	0.0426325426
3851.64117	0.0429341719
3850.21146	0.0432952046
3848.78175	0.0435683876
3847.35203	0.0436953232
3845.92232	0.0436754301
3844.49261	0.0435357653
3843.06290	0.0433262661
3841.63319	0.0431202091
3840.20348	0.0429993570
3838.77377	0.0430174768
3837.34406	0.0431618057
3835.91435	0.0433605015
3834.48464	0.0435355082
3833.05493	0.0436470360
3831.62521	0.0436931774
3830.19550	0.0436871946
3828.76579	0.0436421111
3827.33608	0.0435678437
3825.90637	0.0434756763
3824.47666	0.0433788374
3823.04695	0.0432931446
3821.61724	0.0432366915
3820.18753	0.0432327203
3818.75782	0.0433027819
3817.32811	0.0434490405
3815.89839	0.0436393358
3814.46868	0.0438194089
3813.03897	0.0439412333
3811.60926	0.0439807326
3810.17955	0.0439365357
3808.74984	0.0438225009
3807.32013	0.0436624065
3805.89042	0.0434893519
3804.46071	0.0433433391
3803.03100	0.0432644598
3801.60129	0.0432832502
3800.17157	0.0434094742
3798.74186	0.0436249115
3797.31215	0.0438915156
3795.88244	0.0441653579
3794.45273	0.0444099307
3793.02302	0.0445989259
3791.59331	0.0447172113
3790.16360	0.0447615460
3788.73389	0.0447438397
3787.30418	0.0446913615
3785.87447	0.0446412377
3784.44475	0.0446265228
3783.01504	0.0446592830
3781.58533	0.0447268523
3780.15562	0.0447990820
3778.72591	0.0448448583
3777.29620	0.0448435396
3775.86649	0.0447897539
3774.43678	0.0446896404
3773.00707	0.0445621237
3771.57736	0.0444383435
3770.14765	0.0443579778
3768.71794	0.0443497188
3767.28822	0.0444112197
3765.85851	0.0445080884
3764.42880	0.0445974357
3762.99909	0.0446527712
3761.56938	0.0446726531
3760.13967	0.0446736291
3758.70996	0.0446705297
3757.28025	0.0446555279
3755.85054	0.0445978083
3754.42083	0.0444661602
3752.99112	0.0442616865
3751.56140	0.0440370515
3750.13169	0.0438784845
3748.70198	0.0438524522
3747.27227	0.0439747758
3745.84256	0.0442226492
3744.41285	0.0445470065
3742.98314	0.0448748842
3741.55343	0.0451326333
3740.12372	0.0452805124
3738.69401	0.0453225486
3737.26430	0.0452988707
3735.83458	0.0452723540
3734.40487	0.0452979803
3732.97516	0.0453846157
3731.54545	0.0454968214
3730.11574	0.0455951132
3728.68603	0.0456633158
3727.25632	0.0457112566
3725.82661	0.0457676277
3724.39690	0.0458658636
3722.96719	0.0460206680
3721.53748	0.0462120399
3720.10776	0.0463953987
3718.67805	0.0465266518
3717.24834	0.0465822630
3715.81863	0.0465662703
3714.38892	0.0465149246
3712.95921	0.0464964285
3711.52950	0.0465816595
3710.09979	0.0467856154
3708.67008	0.0470468961
3707.24037	0.0472915359
3705.81066	0.0474957377
3704.38094	0.0476816036
3702.95123	0.0478831008
3701.52152	0.0481144190
3700.09181	0.0483630151
3698.66210	0.0486037098
3697.23239	0.0488173366
3695.80268	0.0489969887
3694.37297	0.0491541326
3692.94326	0.0493258908
3691.51355	0.0495718196
3690.08384	0.0499325767
3688.65412	0.0503737442
3687.22441	0.0507958680
3685.79470	0.0511197299
3684.36499	0.0513323247
3682.93528	0.0514618419
3681.50557	0.0515459552
3680.07586	0.0516279861
3678.64615	0.0517631955
3677.21644	0.0520101860
3675.78673	0.0523946173
3674.35702	0.0528901294
3672.92730	0.0534591042
3671.49759	0.0541032888
3670.06788	0.0548432283
3668.63817	0.0556634329
3667.20846	0.0565051772
3665.77875	0.0573131107
3664.34904	0.0580684878
3662.91933	0.0587812252
3661.48962	0.0594649725
3660.05991	0.0601293445
3658.63020	0.0607837476
3657.20048	0.0614386871
3655.77077	0.0620964728
3654.34106	0.0627543256
3652.91135	0.0634310618
3651.48164	0.0641967133
3650.05193	0.0651507452
3648.62222	0.0663225129
3647.19251	0.0676004812
3645.76280	0.0688371137
3644.33309	0.0699783042
3642.90338	0.0710527152
3641.47366	0.0721013695
3640.04395	0.0731401220
3638.61424	0.0741598085
3637.18453	0.0751382858
3635.75482	0.0760548785
3634.32511	0.0769123733
3632.89540	0.0777711645
3631.46569	0.0787606463
3630.03598	0.0800116882
3628.60627	0.0815059617
3627.17656	0.0830280185
3625.74684	0.0843563676
3624.31713	0.0854422823
3622.88742	0.0863838121
3621.45771	0.0873183385
3620.02800	0.0883447155
3618.59829	0.0894849375
3617.16858	0.0906912461
3615.73887	0.0918963104
3614.30916	0.0930681303
3612.87945	0.0942250192
3611.44974	0.0954166576
3610.02003	0.0966794267
3608.59031	0.0979968309
3607.16060	0.0993028507
3605.73089	0.1005340442
3604.30118	0.1016709730
3602.87147	0.1027350277
3601.44176	0.1037601382
3600.01205	0.1047797725
3598.58234	0.1058278978
3597.15263	0.1069302112
3595.72292	0.1080805808
3594.29321	0.1092351973
3592.86349	0.1103504747
3591.43378	0.1114321873
3590.00407	0.1125410572
3588.57436	0.1137385890
3587.14465	0.1150166839
3585.71494	0.1162902862
3584.28523	0.1174749434
3582.85552	0.1185533181
3581.42581	0.1195666641
3579.99610	0.1205703840
3578.56639	0.1216020137
3577.13667	0.1226679981
3575.70696	0.1237421781
3574.27725	0.1247825176
3572.84754	0.1257624477
3571.41783	0.1267008930
3569.98812	0.1276636720
3568.55841	0.1287292391
3567.12870	0.1299263984
3565.69899	0.1312032342
3564.26928	0.1324709803
3562.83957	0.1336741894
3561.40985	0.1348071992
3559.98014	0.1358896643
3558.55043	0.1369461119
3557.12072	0.1380022019
3555.69101	0.1390778124
3554.26130	0.1401753277
3552.83159	0.1412775218
3551.40188	0.1423652619
3549.97217	0.1434375197
3548.54246	0.1445133388
3547.11275	0.1456114799
3545.68303	0.1467308700
3544.25332	0.1478490084
3542.82361	0.1489401162
3541.39390	0.1499923319
3539.96419	0.1510123163
3538.53448	0.1520165652
3537.10477	0.1530177891
3535.67506	0.1540145725
3534.24535	0.1549938023
3532.81564	0.1559470594
3531.38593	0.1568863690
3529.95621	0.1578415930
3528.52650	0.1588387787
3527.09679	0.1598818004
3525.66708	0.1609532535
3524.23737	0.1620312184
3522.80766	0.1630997956
3521.37795	0.1641472578
3519.94824	0.1651623100
3518.51853	0.1661400348
3517.08882	0.1670863032
3515.65911	0.1680139452
3514.22939	0.1689341515
3512.79968	0.1698540747
3511.36997	0.1707808673
3509.94026	0.1717201322
3508.51055	0.1726691425
3507.08084	0.1736152768
3505.65113	0.1745480150
3504.22142	0.1754722446
3502.79171	0.1764019430
3501.36200	0.1773415506
3499.93229	0.1782791317
3498.50257	0.1791974157
3497.07286	0.1800895631
3495.64315	0.1809571832
3494.21344	0.1818006337
3492.78373	0.1826174408
3491.35402	0.1834139526
3489.92431	0.1842094809
3488.49460	0.1850219369
3487.06489	0.1858511418
3485.63518	0.1866795570
3484.20547	0.1874881536
3482.77575	0.1882692277
3481.34604	0.1890224218
3479.91633	0.1897497922
3478.48662	0.1904601604
3477.05691	0.1911744326
3475.62720	0.1919146031
3474.19749	0.1926845163
3472.76778	0.1934631914
3471.33807	0.1942234784
3469.90836	0.1949537396
3468.47865	0.1956610233
3467.04893	0.1963557601
3465.61922	0.1970399767
3464.18951	0.1977094114
3462.75980	0.1983601004
3461.33009	0.1989896595
3459.90038	0.1995938122
3458.47067	0.2001709342
3457.04096	0.2007288933
3455.61125	0.2012830079
3454.18154	0.2018452138
3452.75183	0.2024159729
3451.32212	0.2029892653
3449.89240	0.2035593092
3448.46269	0.2041217685
3447.03298	0.2046695203
3445.60327	0.2051982582
3444.17356	0.2057158649
3442.74385	0.2062416375
3441.31414	0.2067895383
3439.88443	0.2073532790
3438.45472	0.2079120278
3437.02501	0.2084492892
3435.59530	0.2089637965
3434.16558	0.2094603777
3432.73587	0.2099354118
3431.30616	0.2103774399
3429.87645	0.2107775062
3428.44674	0.2111386806
3427.01703	0.2114728987
3425.58732	0.2117938399
3424.15761	0.2121163309
3422.72790	0.2124570310
3421.29819	0.2128275484
3419.86848	0.2132276446
3418.43876	0.2136443704
3417.00905	0.2140615433
3415.57934	0.2144690901
3414.14963	0.2148626000
3412.71992	0.2152389139
3411.29021	0.2155964971
3409.86050	0.2159392685
3408.43079	0.2162764817
3407.00108	0.2166150957
3405.57137	0.2169535607
3404.14166	0.2172811031
3402.71194	0.2175845653
3401.28223	0.2178536355
3399.85252	0.2180856019
3398.42281	0.2182900608
3396.99310	0.2184887826
3395.56339	0.2187030613
3394.13368	0.2189377993
3392.70397	0.2191737741
3391.27426	0.2193829417
3389.84455	0.2195518315
3388.41484	0.2196938246
3386.98512	0.2198413461
3385.55541	0.2200256586
3384.12570	0.2202604711
3382.69599	0.2205368280
3381.26628	0.2208269686
3379.83657	0.2210964859
3378.40686	0.2213236094
3376.97715	0.2215167433
3375.54744	0.2217145413
3374.11773	0.2219631672
3372.68802	0.2222816348
3371.25830	0.2226437330
3369.82859	0.2229892910
3368.39888	0.2232585251
3366.96917	0.2234261483
3365.53946	0.2235135436
3364.10975	0.2235714942
3362.68004	0.2236473411
3361.25033	0.2237588167
3359.82062	0.2238964736
3358.39091	0.2240498215
3356.96120	0.2242269963
3355.53148	0.2244472057
3354.10177	0.2247117758
3352.67206	0.2249874175
3351.24235	0.2252251506
3349.81264	0.2254012674
3348.38293	0.2255412340
3346.95322	0.2257022560
3345.52351	0.2259306163
3344.09380	0.2262291312
3342.66409	0.2265571952
3341.23438	0.2268582284
3339.80466	0.2270873785
3338.37495	0.2272283584
3336.94524	0.2272951156
3335.51553	0.2273273021
3334.08582	0.2273789048
3332.65611	0.2275032401
3331.22640	0.2277346998
3329.79669	0.2280748039
3328.36698	0.2284885496
3326.93727	0.2289168537
3325.50756	0.2293014675
3324.07784	0.2296115309
3322.64813	0.2298562825
3321.21842	0.2300748825
3319.78871	0.2303149253
3318.35900	0.2306141406
3316.92929	0.2309965491
3315.49958	0.2314734310
3314.06987	0.2320428193
3312.64016	0.2326815128
3311.21045	0.2333433926
3309.78074	0.2339652479
3308.35102	0.2344851494
3306.92131	0.2348589450
3305.49160	0.2350750417
3304.06189	0.2351600081
3302.63218	0.2351752222
3301.20247	0.2351954579
3299.77276	0.2352771163
3298.34305	0.2354314178
3296.91334	0.2356211245
3295.48363	0.2357827723
3294.05392	0.2358612269
3292.62421	0.2358336896
3291.19449	0.2357147485
3289.76478	0.2355392873
3288.33507	0.2353383452
3286.90536	0.2351177037
3285.47565	0.2348589450
3284.04594	0.2345370203
3282.61623	0.2341438830
3281.18652	0.2336965203
3279.75681	0.2332242876
3278.32710	0.2327467650
3276.89739	0.2322584093
3275.46767	0.2317319959
3274.03796	0.2311311811
3272.60825	0.2304236442
3271.17854	0.2295922488
3269.74883	0.2286401093
3268.31912	0.2275934666
3266.88941	0.2264950424
3265.45970	0.2253908813
3264.02999	0.2243173122
3262.60028	0.2232937515
3261.17057	0.2223206758
3259.74085	0.2213824689
3258.31114	0.2204515040
3256.88143	0.2195020020
3255.45172	0.2185300142
3254.02201	0.2175615430
3252.59230	0.2166387141
3251.16259	0.2157872319
3249.73288	0.2149919868
3248.30317	0.2142055184
3246.87346	0.2133808285
3245.44375	0.2125038654
3244.01403	0.2116013914
3242.58432	0.2107218355
3241.15461	0.2099092305
3239.72490	0.2091844082
3238.29519	0.2085396200
3236.86548	0.2079434544
3235.43577	0.2073535323
3234.00606	0.2067359090
3232.57635	0.2060804665
3231.14664	0.2054039240
3229.71693	0.2047374249
3228.28721	0.2041070163
3226.85750	0.2035222352
3225.42779	0.2029771209
3223.99808	0.2024584711
3222.56837	0.2019528002
3221.13866	0.2014491111
3219.70895	0.2009400576
3218.27924	0.2004219443
3216.84953	0.1998941153
3215.41982	0.1993567497
3213.99011	0.1988113523
3212.56039	0.1982622147
3211.13068	0.1977169663
3209.70097	0.1971824169
3208.27126	0.1966568381
3206.84155	0.1961289644
3205.41184	0.1955826879
3203.98213	0.1950075924
3202.55242	0.1944042444
3201.12271	0.1937820166
3199.69300	0.1931545138
3198.26329	0.1925344020
3196.83357	0.1919311136
3195.40386	0.1913476139
3193.97415	0.1907770634
3192.54444	0.1902035773
3191.11473	0.1896106601
3189.68502	0.1889914125
3188.25531	0.1883547306
3186.82560	0.1877186596
3185.39589	0.1870968193
3183.96618	0.1864858419
3182.53647	0.1858671159
3181.10675	0.1852176636
3179.67704	0.1845261306
3178.24733	0.1837986708
3176.81762	0.1830558181
3175.38791	0.1823243648
3173.95820	0.1816275120
3172.52849	0.1809777617
3171.09878	0.1803717762
3169.66907	0.1797901839
3168.23936	0.1792056412
3166.80965	0.1785946041
3165.37993	0.1779483259
3163.95022	0.1772723198
3162.52051	0.1765816659
3161.09080	0.1758922935
3159.66109	0.1752181947
3158.23138	0.1745695323
3156.80167	0.1739481688
3155.37196	0.1733432263
3153.94225	0.1727339476
3152.51254	0.1720997393
3151.08283	0.1714329273
3149.65311	0.1707437783
3148.22340	0.1700561792
3146.79369	0.1693957448
3145.36398	0.1687795967
3143.93427	0.1682089418
3142.50456	0.1676675677
3141.07485	0.1671276540
3139.64514	0.1665621996
3138.21543	0.1659615636
3136.78572	0.1653384119
3135.35601	0.1647175252
3133.92629	0.1641169339
3132.49658	0.1635353118
3131.06687	0.1629582494
3129.63716	0.1623761505
3128.20745	0.1617981642
3126.77774	0.1612491459
3125.34803	0.1607545912
3123.91832	0.1603230536
3122.48861	0.1599396020
3121.05890	0.1595707238
3119.62919	0.1591791362
3118.19948	0.1587383747
3116.76976	0.1582440585
3115.34005	0.1577142477
3113.91034	0.1571783423
3112.48063	0.1566588134
3111.05092	0.1561608166
3109.62121	0.1556760967
3108.19150	0.1551988721
3106.76179	0.1547368467
3105.33208	0.1543069929
3103.90237	0.1539188921
3102.47266	0.1535621881
3101.04294	0.1532111317
3099.61323	0.1528443992
3098.18352	0.1524619013
3096.75381	0.1520842314
3095.32410	0.1517354399
3093.89439	0.1514238417
3092.46468	0.1511370242
3091.03497	0.1508517861
3089.60526	0.1505510658
3088.17555	0.1502321213
3086.74584	0.1499036402
3085.31612	0.1495752633
3083.88641	0.1492471397
3082.45670	0.1489067525
3081.02699	0.1485311687
3079.59728	0.1480992138
3078.16757	0.1476034820
3076.73786	0.1470606923
3075.30815	0.1465100199
3073.87844	0.1459980458
3072.44873	0.1455544233
3071.01902	0.1451722533
3069.58930	0.1448074728
3068.15959	0.1444004774
3066.72988	0.1439080834
3065.30017	0.1433266699
3063.87046	0.1426923275
3062.44075	0.1420584023
3061.01104	0.1414677501
3059.58133	0.1409352869
3058.15162	0.1404485106
3056.72191	0.1399809718
3055.29220	0.1395068318
3053.86248	0.1390118897
3052.43277	0.1384958923
3051.00306	0.1379686296
3049.57335	0.1374437064
3048.14364	0.1369281113
3046.71393	0.1364158690
3045.28422	0.1358869076
3043.85451	0.1353190392
3042.42480	0.1347044259
3040.99509	0.1340616792
3039.56538	0.1334284544
3038.13566	0.1328385174
3036.70595	0.1322977096
3035.27624	0.1317789257
3033.84653	0.1312420666
3032.41682	0.1306630969
3030.98711	0.1300491989
3029.55740	0.1294301152
3028.12769	0.1288359612
3026.69798	0.1282812655
3025.26827	0.1277658343
3023.83856	0.1272850186
3022.40884	0.1268382519
3020.97913	0.1264275610
3019.54942	0.1260495633
3018.11971	0.1256890744
3016.69000	0.1253198385
3015.26029	0.1249130219
3013.83058	0.1244503185
3012.40087	0.1239337623
3010.97116	0.1233863905
3009.54145	0.1228435859
3008.11174	0.1223406345
3006.68202	0.1219019070
3005.25231	0.1215379015
3003.82260	0.1212475300
3002.39289	0.1210233271
3000.96318	0.1208551079
2999.53347	0.1207335666
2998.10376	0.1206500009
2996.67405	0.1205943003
2995.24434	0.1205537096
2993.81463	0.1205157489
2992.38492	0.1204780340
2990.95520	0.1204545647
2989.52549	0.1204752997
2988.09578	0.1205734536
2986.66607	0.1207692549
2985.23636	0.1210603714
2983.80665	0.1214243919
2982.37694	0.1218298003
2980.94723	0.1222477332
2979.51752	0.1226589978
2978.08781	0.1230557710
2976.65810	0.1234391481
2975.22838	0.1238156036
2973.79867	0.1241937205
2972.36896	0.1245816946
2970.93925	0.1249849200
2969.50954	0.1254018992
2968.07983	0.1258195043
2966.65012	0.1262102872
2965.22041	0.1265355498
2963.79070	0.1267538220
2962.36099	0.1268328428
2960.93128	0.1267582476
2959.50157	0.1265358329
2958.07185	0.1261875778
2956.64214	0.1257418096
2955.21243	0.1252265126
2953.78272	0.1246672943
2952.35301	0.1240926385
2950.92330	0.1235392541
2949.49359	0.1230490357
2948.06388	0.1226581037
2946.63417	0.1223836616
2945.20446	0.1222190633
2943.77475	0.1221406236
2942.34503	0.1221213862
2940.91532	0.1221408322
2939.48561	0.1221915856
2938.05590	0.1222782657
2936.62619	0.1224115938
2935.19648	0.1225948036
2933.76677	0.1228092387
2932.33706	0.1230095550
2930.90735	0.1231368110
2929.47764	0.1231441647
2928.04793	0.1230177283
2926.61821	0.1227759197
2925.18850	0.1224499568
2923.75879	0.1220594645
2922.32908	0.1216026992
2920.89937	0.1210624203
2919.46966	0.1204196885
2918.03995	0.1196634546
2916.61024	0.1187931597
2915.18053	0.1178194061
2913.75082	0.1167650372
2912.32111	0.1156651452
2910.89139	0.1145630479
2909.46168	0.1135025248
2908.03197	0.1125170067
2906.60226	0.1116240770
2905.17255	0.1108259559
2903.74284	0.1101164520
2902.31313	0.1094869673
2900.88342	0.1089274213
2899.45371	0.1084219813
2898.02400	0.1079486907
2896.59429	0.1074865907
2895.16457	0.1070270091
2893.73486	0.1065798551
2892.30515	0.1061667055
2890.87544	0.1058077142
2889.44573	0.1055120230
2888.01602	0.1052773893
2886.58631	0.1050981805
2885.15660	0.1049714163
2883.72689	0.1048978120
2882.29718	0.1048792601
2880.86747	0.1049145907
2879.43775	0.1049934030
2878.00804	0.1050878614
2876.57833	0.1051486284
2875.14862	0.1051135808
2873.71891	0.1049291939
2872.28920	0.1045729369
2870.85949	0.1040652320
2869.42978	0.1034615338
2868.00007	0.1028309241
2866.57036	0.1022345796
2865.14065	0.1017100960
2863.71093	0.1012671366
2862.28122	0.1008925810
2860.85151	0.1005629823
2859.42180	0.1002574414
2857.99209	0.0999649465
2856.56238	0.0996790677
2855.13267	0.0993848220
2853.70296	0.0990464464
2852.27325	0.0986100584
2850.84354	0.0980237201
2849.41383	0.0972644016
2847.98411	0.0963579863
2846.55440	0.0953759998
2845.12469	0.0944102257
2843.69498	0.0935391486
2842.26527	0.0928011462
2840.83556	0.0921916440
2839.40585	0.0916779935
2837.97614	0.0912228227
2836.54643	0.0907994881
2835.11672	0.0903941244
2833.68701	0.0900015682
2832.25729	0.0896215439
2830.82758	0.0892572403
2829.39787	0.0889154822
2827.96816	0.0886025578
2826.53845	0.0883200616
2825.10874	0.0880635902
2823.67903	0.0878251418
2822.24932	0.0875961930
2820.81961	0.0873703435
2819.38990	0.0871436894
2817.96019	0.0869160891
2816.53047	0.0866914093
2815.10076	0.0864756331
2813.67105	0.0862721503
2812.24134	0.0860767215
2810.81163	0.0858783722
2809.38192	0.0856650546
2807.95221	0.0854323283
2806.52250	0.0851869360
2805.09279	0.0849443600
2803.66308	0.0847195387
2802.23337	0.0845180079
2800.80366	0.0843326971
2799.37394	0.0841491297
2797.94423	0.0839560032
2796.51452	0.0837552994
2795.08481	0.0835608393
2793.65510	0.0833866894
2792.22539	0.0832336247
2790.79568	0.0830849335
2789.36597	0.0829162747
2787.93626	0.0827115402
2786.50655	0.0824717581
2785.07684	0.0822126418
2783.64712	0.0819544345
2782.21741	0.0817128420
2780.78770	0.0814950615
2779.35799	0.0813002661
2777.92828	0.0811199099
2776.49857	0.0809405372
2775.06886	0.0807491392
2773.63915	0.0805406272
2772.20944	0.0803209022
2770.77973	0.0801023543
2769.35002	0.0798950493
2767.92030	0.0797019675
2766.49059	0.0795191079
2765.06088	0.0793415084
2763.63117	0.0791670904
2762.20146	0.0789966583
2760.77175	0.0788289532
2759.34204	0.0786595568
2757.91233	0.0784824938
2756.48262	0.0782971978
2755.05291	0.0781108066
2753.62320	0.0779343396
2752.19348	0.0777727440
2750.76377	0.0776174664
2749.33406	0.0774502680
2747.90435	0.0772560090
2746.47464	0.0770360306
2745.04493	0.0768080950
2743.61522	0.0765933171
2742.18551	0.0764007643
2740.75580	0.0762219131
2739.32609	0.0760387778
2737.89638	0.0758394152
2736.46666	0.0756260082
2735.03695	0.0754148290
2733.60724	0.0752263740
2732.17753	0.0750742778
2730.74782	0.0749575496
2729.31811	0.0748595819
2727.88840	0.0747542232
2726.45869	0.0746163726
2725.02898	0.0744337887
2723.59927	0.0742111206
2722.16956	0.0739661232
2720.73984	0.0737178624
2719.31013	0.0734777153
2717.88042	0.0732470453
2716.45071	0.0730235726
2715.02100	0.0728085712
2713.59129	0.0726090074
2712.16158	0.0724326819
2710.73187	0.0722804889
2709.30216	0.0721440315
2707.87245	0.0720093325
2706.44274	0.0718649253
2705.01302	0.0717061237
2703.58331	0.0715354457
2702.15360	0.0713600144
2700.72389	0.0711877048
2699.29418	0.0710251555
2697.86447	0.0708750412
2696.43476	0.0707344860
2695.00505	0.0705969930
2693.57534	0.0704557896
2692.14563	0.0703086779
2690.71592	0.0701584145
2689.28620	0.0700093880
2687.85649	0.0698655546
2686.42678	0.0697296411
2684.99707	0.0696035549
2683.56736	0.0694876462
2682.13765	0.0693777874
2680.70794	0.0692657009
2679.27823	0.0691424534
2677.84852	0.0690038502
2676.41881	0.0688524321
2674.98910	0.0686930567
2673.55938	0.0685283840
2672.12967	0.0683585554
2670.69996	0.0681850985
2669.27025	0.0680144727
2667.84054	0.0678573698
2666.41083	0.0677221417
2664.98112	0.0676100031
2663.55141	0.0675133467
2662.12170	0.0674196780
2660.69199	0.0673180446
2659.26228	0.0672039837
2657.83256	0.0670810789
2656.40285	0.0669574142
2654.97314	0.0668391660
2653.54343	0.0667261109
2652.11372	0.0666112676
2650.68401	0.0664859042
2649.25430	0.0663453117
2647.82459	0.0661921352
2646.39488	0.0660350919
2644.96517	0.0658854544
2643.53546	0.0657532215
2642.10575	0.0656452924
2640.67603	0.0655628294
2639.24632	0.0655011237
2637.81661	0.0654500723
2636.38690	0.0653984919
2634.95719	0.0653362349
2633.52748	0.0652579814
2632.09777	0.0651635602
2630.66806	0.0650574639
2629.23835	0.0649451986
2627.80864	0.0648295954
2626.37893	0.0647097006
2624.94921	0.0645834431
2623.51950	0.0644538254
2622.08979	0.0643306673
2620.66008	0.0642263666
2619.23037	0.0641466901
2617.80066	0.0640847906
2616.37095	0.0640259907
2614.94124	0.0639579296
2613.51153	0.0638787597
2612.08182	0.0637969896
2610.65211	0.0637225807
2609.22239	0.0636607707
2607.79268	0.0636097640
2606.36297	0.0635657087
2604.93326	0.0635260046
2603.50355	0.0634897500
2602.07384	0.0634555370
2600.64413	0.0634183288
2599.21442	0.0633708239
2597.78471	0.0633064881
2596.35500	0.0632243529
2594.92529	0.0631314442
2593.49557	0.0630411133
2592.06586	0.0629656911
2590.63615	0.0629090816
2589.20644	0.0628644079
2587.77673	0.0628194436
2586.34702	0.0627663210
2584.91731	0.0627075508
2583.48760	0.0626531839
2582.05789	0.0626119152
2580.62818	0.0625838712
2579.19847	0.0625608489
2577.76875	0.0625325665
2576.33904	0.0624963082
2574.90933	0.0624573603
2573.47962	0.0624253191
2572.04991	0.0624057725
2570.62020	0.0623976141
2569.19049	0.0623939671
2567.76078	0.0623896942
2566.33107	0.0623843148
2564.90136	0.0623827614
2563.47165	0.0623912774
2562.04193	0.0624125265
2560.61222	0.0624433123
2559.18251	0.0624746382
2557.75280	0.0624949932
2556.32309	0.0624963976
2554.89338	0.0624782853
2553.46367	0.0624485426
2552.03396	0.0624185652
2550.60425	0.0623975843
2549.17454	0.0623881705
2547.74483	0.0623875447
2546.31511	0.0623924434
2544.88540	0.0624015592
2543.45569	0.0624152459
2542.02598	0.0624349155
2540.59627	0.0624621436
2539.16656	0.0625003427
2537.73685	0.0625532866
2536.30714	0.0626205876
2534.87743	0.0626942739
2533.44772	0.0627602190
2532.01801	0.0628062859
2530.58829	0.0628309324
2529.15858	0.0628438592
2527.72887	0.0628601313
2526.29916	0.0628881678
2524.86945	0.0629253834
2523.43974	0.0629610568
2522.01003	0.0629846379
2520.58032	0.0629934669
2519.15061	0.0629935265
2517.72090	0.0629946887
2516.29119	0.0630048960
2514.86147	0.0630265921
2513.43176	0.0630578101
2512.00205	0.0630936101
2510.57234	0.0631286055
2509.14263	0.0631590784
2507.71292	0.0631838068
2506.28321	0.0632056966
2504.85350	0.0632301271
2503.42379	0.0632618368
2501.99408	0.0633019954
2500.56437	0.0633468330
2499.13465	0.0633904114
2497.70494	0.0634295046
2496.27523	0.0634662956
2494.84552	0.0635064691
2493.41581	0.0635552183
2491.98610	0.0636127293
2490.55639	0.0636739582
2489.12668	0.0637315437
2487.69697	0.0637796000
2486.26726	0.0638166294
2484.83755	0.0638455302
2483.40784	0.0638726130
2481.97812	0.0639051497
2480.54841	0.0639483333
2479.11870	0.0640024170
2477.68899	0.0640614480
2476.25928	0.0641154572
2474.82957	0.0641557798
2473.39986	0.0641802400
2471.97015	0.0641956329
2470.54044	0.0642137006
2469.11073	0.0642437115
2467.68102	0.0642873198
2466.25130	0.0643383488
2464.82159	0.0643874034
2463.39188	0.0644272193
2461.96217	0.0644561648
2460.53246	0.0644775778
2459.10275	0.0644962862
2457.67304	0.0645155311
2456.24333	0.0645369142
2454.81362	0.0645609125
2453.38391	0.0645889938
2451.95420	0.0646230578
2450.52448	0.0646628067
2449.09477	0.0647043809
2447.66506	0.0647405609
2446.23535	0.0647643879
2444.80564	0.0647736117
2443.37593	0.0647732839
2441.94622	0.0647737011
2440.51651	0.0647844896
2439.08680	0.0648091659
2437.65709	0.0648429990
2436.22738	0.0648756102
2434.79766	0.0648957491
2433.36795	0.0648970753
2431.93824	0.0648799092
2430.50853	0.0648516864
2429.07882	0.0648235008
2427.64911	0.0648055896
2426.21940	0.0648037568
2424.78969	0.0648176968
2423.35998	0.0648424327
2421.93027	0.0648710430
2420.50056	0.0648970753
2419.07084	0.0649152920
2417.64113	0.0649228022
2416.21142	0.0649199188
2414.78171	0.0649097860
2413.35200	0.0648959950
2411.92229	0.0648794621
2410.49258	0.0648580268
2409.06287	0.0648308918
2407.63316	0.0647999942
2406.20345	0.0647719279
2404.77374	0.0647508353
2403.34402	0.0647344589
2401.91431	0.0647147521
2400.48460	0.0646844059
2399.05489	0.0646436960
2397.62518	0.0646009818
2396.19547	0.0645680651
2394.76576	0.0645532236
2393.33605	0.0645574033
2391.90634	0.0645751208
2390.47663	0.0645959377
2389.04692	0.0646070465
2387.61720	0.0645958185
2386.18749	0.0645525306
2384.75778	0.0644732192
2383.32807	0.0643607453
2381.89836	0.0642214715
2380.46865	0.0640616640
2379.03894	0.0638836473
2377.60923	0.0636845082
2376.17952	0.0634584129
2374.74981	0.0632007867
2373.32010	0.0629112646
2371.89038	0.0625957996
2370.46067	0.0622644052
2369.03096	0.0619285740
2367.60125	0.0615992397
2366.17154	0.0612860397
2364.74183	0.0610018708
2363.31212	0.0607679076
2361.88241	0.0606125146
2360.45270	0.0605614148
2359.02299	0.0606233180
2357.59328	0.0607870817
2356.16356	0.0610253178
2354.73385	0.0612979941
2353.30414	0.0615582541
2351.87443	0.0617648289
2350.44472	0.0618915297
2349.01501	0.0619279481
2347.58530	0.0618765727
2346.15559	0.0617518499
2344.72588	0.0615825914
2343.29617	0.0614096150
2341.86646	0.0612736084
2340.43674	0.0611956082
2339.00703	0.0611718260
2337.57732	0.0611818694
2336.14761	0.0612015091
2334.71790	0.0612120889
2333.28819	0.0612093769
2331.85848	0.0612057410
2330.42877	0.0612231754
2328.99906	0.0612793900
2327.56935	0.0613756254
2326.13964	0.0614959449
2324.70993	0.0616160929
2323.28021	0.0617149062
2321.85050	0.0617846139
2320.42079	0.0618335903
2318.99108	0.0618791096
2317.56137	0.0619343668
2316.13166	0.0619997494
2314.70195	0.0620628744
2313.27224	0.0621083304
2311.84253	0.0621287860
2310.41282	0.0621309392
2308.98311	0.0621310882
2307.55339	0.0621451549
2306.12368	0.0621784888
2304.69397	0.0622242540
2303.26426	0.0622693934
2301.83455	0.0623022020
2300.40484	0.0623186640
2298.97513	0.0623220094
2297.54542	0.0623176768
2296.11571	0.0623099394
2294.68600	0.0622998103
2293.25629	0.0622862764
2291.82657	0.0622662567
2290.39686	0.0622369498
2288.96715	0.0621971004
2287.53744	0.0621498451
2286.10773	0.0621022657
2284.67802	0.0620609038
2283.24831	0.0620264746
2281.81860	0.0619921982
2280.38889	0.0619487576
2278.95918	0.0618911088
2277.52947	0.0618232936
2276.09975	0.0617553703
2274.67004	0.0616968535
2273.24033	0.0616516545
2271.81062	0.0616173148
2270.38091	0.0615885295
2268.95120	0.0615602210
2267.52149	0.0615289621
2266.09178	0.0614942759
2264.66207	0.0614586696
2263.23236	0.0614276268
2261.80265	0.0614063367
2260.37293	0.0613957196
2258.94322	0.0613885634
2257.51351	0.0613712110
2256.08380	0.0613311715
2254.65409	0.0612654127
2253.22438	0.0611836277
2251.79467	0.0611037947
2250.36496	0.0610435195
2248.93525	0.0610113144
2247.50554	0.0610048808
2246.07583	0.0610143542
2244.64611	0.0610272214
2243.21640	0.0610318407
2241.78669	0.0610194467
2240.35698	0.0609858148
2238.92727	0.0609329119
2237.49756	0.0608699247
2236.06785	0.0608099476
2234.63814	0.0607637689
2233.20843	0.0607336387
2231.77872	0.0607112795
2230.34901	0.0606833287
2228.91929	0.0606408194
2227.48958	0.0605849251
2226.05987	0.0605263598
2224.63016	0.0604769960
2223.20045	0.0604423359
2221.77074	0.0604190975
2220.34103	0.0603978001
2218.91132	0.0603687651
2217.48161	0.0603261106
2216.05190	0.0602708235
2214.62219	0.0602109320
2213.19247	0.0601582713
2211.76276	0.0601222962
2210.33305	0.0601039268
2208.90334	0.0600943826
2207.47363	0.0600806475
2206.04392	0.0600533895
2204.61421	0.0600115098
2203.18450	0.0599605702
2201.75479	0.0599087738
2200.32508	0.0598624796
2198.89537	0.0598248392
2197.46565	0.0597948022
2196.03594	0.0597671755
2194.60623	0.0597349182
2193.17652	0.0596918799
2191.74681	0.0596369989
2190.31710	0.0595747903
2188.88739	0.0595125295
2187.45768	0.0594561547
2186.02797	0.0594058149
2184.59826	0.0593560450
2183.16855	0.0592987724
2181.73883	0.0592285991
2180.30912	0.0591467805
2178.87941	0.0590613931
2177.44970	0.0589833111
2176.01999	0.0589213446
2174.59028	0.0588790104
2173.16057	0.0588545240
2171.73086	0.0588413328
2170.30115	0.0588295087
2168.87144	0.0588081665
2167.44173	0.0587692223
2166.01202	0.0587117597
2164.58230	0.0586416833
2163.15259	0.0585691892
2161.72288	0.0585026890
2160.29317	0.0584466234
2158.86346	0.0584009290
2157.43375	0.0583630279
2156.00404	0.0583294518
2154.57433	0.0582962073
2153.14462	0.0582601503
2151.71491	0.0582203344
2150.28520	0.0581780411
2148.85548	0.0581347123
2147.42577	0.0580903254
2145.99606	0.0580433086
2144.56635	0.0579915904
2143.13664	0.0579342321
2141.70693	0.0578717329
2140.27722	0.0578062274
2138.84751	0.0577409714
2137.41780	0.0576799177
2135.98809	0.0576270632
2134.55838	0.0575844422
2133.12866	0.0575511903
2131.69895	0.0575226434
2130.26924	0.0574921779
2128.83953	0.0574530251
2127.40982	0.0574014969
2125.98011	0.0573386624
2124.55040	0.0572699904
2123.12069	0.0572026856
2121.69098	0.0571420640
2120.26127	0.0570895672
2118.83156	0.0570428073
2117.40184	0.0569981188
2115.97213	0.0569533743
2114.54242	0.0569096059
2113.11271	0.0568712167
2111.68300	0.0568425953
2110.25329	0.0568242110
2108.82358	0.0568103157
2107.39387	0.0567914918
2105.96416	0.0567597188
2104.53445	0.0567132905
2103.10474	0.0566573068
2101.67502	0.0566003025
2100.24531	0.0565485209
2098.81560	0.0565036461
2097.38589	0.0564632267
2095.95618	0.0564235486
2094.52647	0.0563819297
2093.09676	0.0563383363
2091.66705	0.0562952235
2090.23734	0.0562565923
2088.80763	0.0562241785
2087.37792	0.0561947189
2085.94820	0.0561593361
2084.51849	0.0561082251
2083.08878	0.0560374185
2081.65907	0.0559525788
2080.22936	0.0558656342
2078.79965	0.0557879806
2077.36994	0.0557235852
2075.94023	0.0556697026
2074.51052	0.0556213558
2073.08081	0.0555755496
2071.65110	0.0555319190
2070.22138	0.0554902703
2068.79167	0.0554494150
2067.36196	0.0554078892
2065.93225	0.0553650707
2064.50254	0.0553217605
2063.07283	0.0552790985
2061.64312	0.0552381463
2060.21341	0.0551997833
2058.78370	0.0551636890
2057.35399	0.0551279224
2055.92428	0.0550893061
2054.49456	0.0550456084
2053.06485	0.0549970120
2051.63514	0.0549462736
2050.20543	0.0548960716
2048.77572	0.0548473112
2047.34601	0.0547998510
2045.91630	0.0547545701
2044.48659	0.0547123477
2043.05688	0.0546740592
2041.62717	0.0546368957
2040.19746	0.0545954742
2038.76774	0.0545442849
2037.33803	0.0544819795
2035.90832	0.0544134639
2034.47861	0.0543495342
2033.04890	0.0543024503
2031.61919	0.0542798936
2030.18948	0.0542786010
2028.75977	0.0542837344
2027.33006	0.0542749353
2025.90035	0.0542364828
2024.47064	0.0541651882
2023.04092	0.0540709496
2021.61121	0.0539711937
2020.18150	0.0538826808
2018.75179	0.0538161620
2017.32208	0.0537749380
2015.89237	0.0537554286
2014.46266	0.0537495092
2013.03295	0.0537464023
2011.60324	0.0537369102
2010.17353	0.0537158772
2008.74382	0.0536850318
2007.31411	0.0536513478
2005.88439	0.0536243431
2004.45468	0.0536106974
2003.02497	0.0536109880
2001.59526	0.0536184572
2000.16555	0.0536218844
1998.73584	0.0536111072
1997.30613	0.0535827279
1995.87642	0.0535420217
1994.44671	0.0534987450
1993.01700	0.0534607731
1991.58729	0.0534303263
1990.15757	0.0534055606
1988.72786	0.0533853620
1987.29815	0.0533716902
1985.86844	0.0533665977
1984.43873	0.0533686168
1983.00902	0.0533728637
1981.57931	0.0533750579
1980.14960	0.0533748828
1978.71989	0.0533744730
1977.29018	0.0533761419
1975.86047	0.0533790104
1974.43075	0.0533804446
1973.00104	0.0533783063
1971.57133	0.0533725396
1970.14162	0.0533657484
1968.71191	0.0533628240
1967.28220	0.0533680618
1965.85249	0.0533817038
1964.42278	0.0533984751
1962.99307	0.0534113832
1961.56336	0.0534178838
1960.13365	0.0534222759
1958.70393	0.0534319058
1957.27422	0.0534509346
1955.84451	0.0534772538
1954.41480	0.0535038412
1952.98509	0.0535236634
1951.55538	0.0535315983
1950.12567	0.0535256565
1948.69596	0.0535071194
1947.26625	0.0534806810
1945.83654	0.0534544773
1944.40683	0.0534382574
1942.97711	0.0534401909
1941.54740	0.0534644611
1940.11769	0.0535092577
1938.68798	0.0535668246
1937.25827	0.0536261871
1935.82856	0.0536777079
1934.39885	0.0537167862
1932.96914	0.0537442341
1931.53943	0.0537626334
1930.10972	0.0537735634
1928.68001	0.0537783951
1927.25029	0.0537805073
1925.82058	0.0537851341
1924.39087	0.0537946858
1922.96116	0.0538072847
1921.53145	0.0538201183
1920.10174	0.0538350046
1918.67203	0.0538587384
1917.24232	0.0538978912
1915.81261	0.0539513491
1914.38290	0.0540119670
1912.95319	0.0540720634
1911.52347	0.0541292094
1910.09376	0.0541865975
1908.66405	0.0542499162
1907.23434	0.0543218106
1905.80463	0.0543972366
1904.37492	0.0544636957
1902.94521	0.0545077734
1901.51550	0.0545239747
1900.08579	0.0545188971
1898.65608	0.0545070395
1897.22637	0.0545017570
1895.79665	0.0545095056
1894.36694	0.0545311645
1892.93723	0.0545653291
1891.50752	0.0546102971
1890.07781	0.0546635799
1888.64810	0.0547227710
1887.21839	0.0547881350
1885.78868	0.0548619963
1884.35897	0.0549449809
1882.92926	0.0550327972
1881.49955	0.0551188700
1880.06983	0.0551981106
1878.64012	0.0552684851
1877.21041	0.0553283729
1875.78070	0.0553746000
1874.35099	0.0554054752
1872.92128	0.0554247387
1871.49157	0.0554425903
1870.06186	0.0554731488
1868.63215	0.0555291250
1867.20244	0.0556155331
1865.77273	0.0557259098
1864.34301	0.0558450893
1862.91330	0.0559574068
1861.48359	0.0560547076
1860.05388	0.0561398938
1858.62417	0.0562225878
1857.19446	0.0563090146
1855.76475	0.0563956350
1854.33504	0.0564733371
1852.90533	0.0565353110
1851.47562	0.0565808974
1850.04591	0.0566137768
1848.61619	0.0566392876
1847.18648	0.0566659495
1845.75677	0.0567053556
1844.32706	0.0567668006
1842.89735	0.0568501167
1841.46764	0.0569478534
1840.03793	0.0570535809
1838.60822	0.0571639724
1837.17851	0.0572726466
1835.74880	0.0573682934
1834.31909	0.0574417375
1832.88938	0.0574971102
1831.45966	0.0575530231
1830.02995	0.0576316155
1828.60024	0.0577443689
1827.17053	0.0578882396
1825.74082	0.0580521263
1824.31111	0.0582245700
1822.88140	0.0583961345
1821.45169	0.0585604794
1820.02198	0.0587159954
1818.59227	0.0588638932
1817.16256	0.0590025857
1815.73284	0.0591253974
1814.30313	0.0592290163
1812.87342	0.0593223013
1811.44371	0.0594254360
1810.01400	0.0595540330
1808.58429	0.0597050674
1807.15458	0.0598605499
1805.72487	0.0600030683
1804.29516	0.0601266995
1802.86545	0.0602351353
1801.43574	0.0603364035
1800.00602	0.0604380816
1798.57631	0.0605446920
1797.14660	0.0606568940
1795.71689	0.0607760362
1794.28718	0.0609119758
1792.85747	0.0610853508
1791.42776	0.0613101535
1789.99805	0.0615728982
1788.56834	0.0618371144
1787.13863	0.0620714165
1785.70892	0.0622689463
1784.27920	0.0624441206
1782.84949	0.0626150295
1781.41978	0.0627890527
1779.99007	0.0629619211
1778.56036	0.0631256402
1777.13065	0.0632762760
1775.70094	0.0634170100
1774.27123	0.0635625944
1772.84152	0.0637426078
1771.41181	0.0639857352
1769.98210	0.0642897263
1768.55238	0.0646191537
1767.12267	0.0649390668
1765.69296	0.0652414933
1764.26325	0.0655412450
1762.83354	0.0658577383
1761.40383	0.0662034974
1759.97412	0.0665841401
1758.54441	0.0670007244
1757.11470	0.0674463734
1755.68499	0.0679041594
1754.25528	0.0683610365
1752.82556	0.0688274056
1751.39585	0.0693401918
1749.96614	0.0699325725
1748.53643	0.0705958009
1747.10672	0.0712847561
1745.67701	0.0719648749
1744.24730	0.0726334825
1742.81759	0.0732962638
1741.38788	0.0739409253
1739.95817	0.0745444819
1738.52846	0.0751059055
1737.09874	0.0756654739
1735.66903	0.0762913004
1734.23932	0.0770379752
1732.80961	0.0779074579
1731.37990	0.0788545609
1729.95019	0.0798362195
1728.52048	0.0808418021
1727.09077	0.0818804130
1725.66106	0.0829580724
1724.23135	0.0840683281
1722.80164	0.0852031261
1721.37192	0.0863818526
1719.94221	0.0876766443
1718.51250	0.0891921371
1717.08279	0.0909602866
1715.65308	0.0928389728
1714.22337	0.0946119875
1712.79366	0.0961897746
1711.36395	0.0976347029
1709.93424	0.0990591943
1708.50453	0.1005504206
1707.07482	0.1021565273
1705.64510	0.1039165407
1704.21539	0.1059050933
1702.78568	0.1082582697
1701.35597	0.1111444458
1699.92626	0.1146524623
1698.49655	0.1186347455
1697.06684	0.1226994842
1695.63713	0.1264600754
1694.20742	0.1297593713
1692.77771	0.1326415539
1691.34800	0.1352328211
1689.91828	0.1376903802
1688.48857	0.1402226239
1687.05886	0.1431073099
1685.62915	0.1465856880
1684.19944	0.1505779773
1682.76973	0.1545718610
1681.34002	0.1580767334
1679.91031	0.1610527039
1678.48060	0.1637764722
1677.05089	0.1665365249
1675.62118	0.1694823951
1674.19147	0.1726297289
1672.76175	0.1759521514
1671.33204	0.1794434339
1669.90233	0.1830671430
1668.47262	0.1866986603
1667.04291	0.1902040243
1665.61320	0.1935611665
1664.18349	0.1968401223
1662.75378	0.2000481486
1661.32407	0.2030248791
1659.89436	0.2055273503
1658.46465	0.2073855400
1657.03493	0.2085237950
1655.60522	0.2088564634
1654.17551	0.2082532644
1652.74580	0.2067268193
1651.31609	0.2045958340
1649.88638	0.2022236437
1648.45667	0.1997224092
1647.02696	0.1970868856
1645.59725	0.1944364309
1644.16754	0.1919935793
1642.73783	0.1898659319
1641.30811	0.1879371852
1639.87840	0.1859372109
1638.44869	0.1835714281
1637.01898	0.1806919873
1635.58927	0.1774697304
1634.15956	0.1742916405
1632.72985	0.1713708192
1631.30014	0.1685869396
1629.87043	0.1656566411
1628.44072	0.1623100787
1627.01101	0.1583862901
1625.58129	0.1539161652
1624.15158	0.1491420567
1622.72187	0.1443738043
1621.29216	0.1397704333
1619.86245	0.1352707893
1618.43274	0.1307380944
1617.00303	0.1261890382
1615.57332	0.1218801439
1614.14361	0.1181101799
1612.71390	0.1149555221
1611.28419	0.1122568026
1609.85447	0.1098035797
1608.42476	0.1074934229
1606.99505	0.1053582504
1605.56534	0.1034791097
1604.13563	0.1018910930
1602.70592	0.1005665436
1601.27621	0.0994617864
1599.84650	0.0985486656
1598.41679	0.0978070423
1596.98708	0.0972109064
1595.55737	0.0967369899
1594.12765	0.0963814482
1592.69794	0.0961553454
1591.26823	0.0960633233
1589.83852	0.0960972980
1588.40881	0.0962499976
1586.97910	0.0965261906
1585.54939	0.0969293267
1584.11968	0.0974424183
1582.68997	0.0980331972
1581.26026	0.0986844525
1579.83055	0.0994172022
1578.40083	0.1002778560
1576.97112	0.1012886167
1575.54141	0.1024054065
1574.11170	0.1035514176
1572.68199	0.1047009975
1571.25228	0.1059068739
1569.82257	0.1072387323
1568.39286	0.1086967140
1566.96315	0.1101898104
1565.53344	0.1116152406
1564.10373	0.1129598767
1562.67401	0.1143439487
1561.24430	0.1160131395
1559.81459	0.1182281896
1558.38488	0.1209476739
1556.95517	0.1236608848
1555.52546	0.1258834004
1554.09575	0.1275574416
1552.66604	0.1288301051
1551.23633	0.1297937483
1549.80662	0.1304445416
1548.37691	0.1307418346
1546.94719	0.1306608915
1545.51748	0.1301832646
1544.08777	0.1292458773
1542.65806	0.1277514100
1541.22835	0.1257462651
1539.79864	0.1235813648
1538.36893	0.1216422617
1536.93922	0.1199915335
1535.50951	0.1184591129
1534.07980	0.1168880388
1532.65009	0.1152394563
1531.22037	0.1135604903
1529.79066	0.1118956208
1528.36095	0.1102300808
1526.93124	0.1085071489
1525.50153	0.1066868678
1524.07182	0.1047907770
1522.64211	0.1029070988
1521.21240	0.1011454761
1519.78269	0.0995647535
1518.35298	0.0981293619
1516.92327	0.0967380628
1515.49356	0.0952926874
1514.06384	0.0937365517
1512.63413	0.0920270234
1511.20442	0.0900727808
1509.77471	0.0877125040
1508.34500	0.0848604143
1506.91529	0.0818147436
1505.48558	0.0792075992
1504.05587	0.0773766041
1502.62616	0.0761378780
1501.19645	0.0751450211
1499.76674	0.0741563365
1498.33702	0.0730936527
1496.90731	0.0720135123
1495.47760	0.0710145161
1494.04789	0.0701357201
1492.61818	0.0693456531
1491.18847	0.0686066225
1489.75876	0.0679300129
1488.32905	0.0673770234
1486.89934	0.0670036897
1485.46963	0.0668128356
1484.03992	0.0667677075
1482.61020	0.0668312535
1481.18049	0.0669855922
1479.75078	0.0672282502
1478.32107	0.0675654262
1476.89136	0.0680140778
1475.46165	0.0686043203
1474.03194	0.0693510026
1472.60223	0.0701996088
1471.17252	0.0710236952
1469.74281	0.0717104599
1468.31310	0.0722245499
1466.88338	0.0725944415
1465.45367	0.0728706568
1464.02396	0.0730958283
1462.59425	0.0732928887
1461.16454	0.0734737962
1459.73483	0.0736531466
1458.30512	0.0738453344
1456.87541	0.0740368143
1455.44570	0.0741735324
1454.01599	0.0742024332
1452.58628	0.0741088092
1451.15656	0.0739037618
1449.72685	0.0736032799
1448.29714	0.0732271001
1446.86743	0.0728041679
1445.43772	0.0723651275
1444.00801	0.0719256774
1442.57830	0.0714760274
1441.14859	0.0709898248
1439.71888	0.0704427585
1438.28917	0.0698386803
1436.85946	0.0692271441
1435.42974	0.0686893314
1434.00003	0.0682908148
1432.57032	0.0680520087
1431.14061	0.0679634586
1429.71090	0.0680102035
1428.28119	0.0681773201
1426.85148	0.0684434921
1425.42177	0.0687793940
1423.99206	0.0691584200
1422.56235	0.0695697069
1421.13264	0.0700237751
1419.70292	0.0705403462
1418.27321	0.0711204633
1416.84350	0.0717301816
1415.41379	0.0723230839
1413.98408	0.0728735030
1412.55437	0.0733859092
1411.12466	0.0738806576
1409.69495	0.0743745267
1408.26524	0.0748688057
1406.83553	0.0753461868
1405.40582	0.0757741705
1403.97610	0.0761129558
1402.54639	0.0763261691
1401.11668	0.0763938501
1399.68697	0.0763189793
1398.25726	0.0761239678
1396.82755	0.0758411139
1395.39784	0.0755020455
1393.96813	0.0751274824
1392.53842	0.0747207701
1391.10871	0.0742685199
1389.67900	0.0737485439
1388.24928	0.0731455460
1386.81957	0.0724670291
1385.38986	0.0717467591
1383.96015	0.0710254908
1382.53044	0.0703289732
1381.10073	0.0696636885
1379.67102	0.0690300390
1378.24131	0.0684343725
1376.81160	0.0678929910
1375.38189	0.0674265698
1373.95218	0.0670515597
1372.52246	0.0667706653
1371.09275	0.0665670335
1369.66304	0.0664066896
1368.23333	0.0662509277
1366.80362	0.0660742372
1365.37391	0.0658791587
1363.94420	0.0656997636
1362.51449	0.0655835718
1361.08478	0.0655610859
1359.65507	0.0656265020
1358.22536	0.0657469258
1356.79565	0.0658846721
1355.36593	0.0660124272
1353.93622	0.0661155358
1352.50651	0.0661904439
1351.07680	0.0662412792
1349.64709	0.0662762523
1348.21738	0.0663026348
1346.78767	0.0663229302
1345.35796	0.0663361996
1343.92825	0.0663421750
1342.49854	0.0663472712
1341.06883	0.0663661510
1339.63911	0.0664179102
1338.20940	0.0665144101
1336.77969	0.0666526109
1335.34998	0.0668187886
1333.92027	0.0670007542
1332.49056	0.0671973377
1331.06085	0.0674149022
1329.63114	0.0676583126
1328.20143	0.0679233819
1326.77172	0.0681983978
1325.34201	0.0684725270
1323.91229	0.0687430352
1322.48258	0.0690139830
1321.05287	0.0692901164
1319.62316	0.0695718601
1318.19345	0.0698554292
1316.76374	0.0701359287
1315.33403	0.0704103410
1313.90432	0.0706780404
1312.47461	0.0709400848
1311.04490	0.0711992308
1309.61519	0.0714598820
1308.18547	0.0717255101
1306.75576	0.0719954297
1305.32605	0.0722615346
1303.89634	0.0725089386
1302.46663	0.0727211908
1301.03692	0.0728890896
1299.60721	0.0730158538
1298.17750	0.0731161013
1296.74779	0.0732061416
1295.31808	0.0732953995
1293.88837	0.0733829364
1292.45865	0.0734632760
1291.02894	0.0735333636
1289.59923	0.0735967159
1288.16952	0.0736599863
1286.73981	0.0737277716
1285.31010	0.0737994090
1283.88039	0.0738697052
1282.45068	0.0739339292
1281.02097	0.0739927962
1279.59126	0.0740554780
1278.16155	0.0741377026
1276.73183	0.0742574930
1275.30212	0.0744282305
1273.87241	0.0746567026
1272.44270	0.0749449059
1271.01299	0.0752932355
1269.58328	0.0757039040
1268.15357	0.0761806965
1266.72386	0.0767277777
1265.29415	0.0773491040
1263.86444	0.0780470967
1262.43473	0.0788216591
1261.00501	0.0796670467
1259.57530	0.0805687010
1258.14559	0.0814996213
1256.71588	0.0824215859
1255.28617	0.0832888708
1253.85646	0.0840581805
1252.42675	0.0846973583
1250.99704	0.0851890743
1249.56733	0.0855269060
1248.13762	0.0857090354
1246.70791	0.0857348964
1245.27819	0.0856082663
1243.84848	0.0853418559
1242.41877	0.0849569812
1240.98906	0.0844782293
1239.55935	0.0839276761
1238.12964	0.0833239332
1236.69993	0.0826844573
1235.27022	0.0820269957
1233.84051	0.0813669115
1232.41080	0.0807137564
1230.98109	0.0800699517
1229.55137	0.0794338137
1228.12166	0.0788032860
1226.69195	0.0781773999
1225.26224	0.0775550082
1223.83253	0.0769335404
1222.40282	0.0763088614
1220.97311	0.0756774917
1219.54340	0.0750385821
1218.11369	0.0743946210
1216.68398	0.0737506002
1215.25427	0.0731136575
1213.82455	0.0724930018
1212.39484	0.0719009042
1210.96513	0.0713512301
1209.53542	0.0708559975
1208.10571	0.0704227313
1206.67600	0.0700539500
1205.24629	0.0697515532
1203.81658	0.0695207566
1202.38687	0.0693714693
1200.95716	0.0693136752
1199.52745	0.0693521500
1198.09774	0.0694841817
1196.66802	0.0697027147
1195.23831	0.0700010285
1193.80860	0.0703759715
1192.37889	0.0708247945
1190.94918	0.0713416487
1189.51947	0.0719126016
1188.08976	0.0725167096
1186.66005	0.0731330737
1185.23034	0.0737498328
1183.80063	0.0743720680
1182.37092	0.0750224888
1180.94120	0.0757322237
1179.51149	0.0765266493
1178.08178	0.0774124339
1176.65207	0.0783725381
1175.22236	0.0793719292
1173.79265	0.0803705528
1172.36294	0.0813388824
1170.93323	0.0822690427
1169.50352	0.0831779763
1168.07381	0.0840980113
1166.64410	0.0850616619
1165.21438	0.0860872269
1163.78467	0.0871735588
1162.35496	0.0883054435
1160.92525	0.0894616172
1159.49554	0.0906224176
1158.06583	0.0917718038
1156.63612	0.0928979218
1155.20641	0.0939936042
1153.77670	0.0950563550
1152.34699	0.0960895494
1150.91728	0.0971030295
1149.48756	0.0981144682
1148.05785	0.0991464108
1146.62814	0.1002214104
1145.19843	0.1013569012
1143.76872	0.1025625318
1142.33901	0.1038427204
1140.90930	0.1051992178
1139.47959	0.1066310406
1138.04988	0.1081319377
1136.62017	0.1096911952
1135.19046	0.1112987101
1133.76074	0.1129516810
1132.33103	0.1146530360
1130.90132	0.1164041907
1129.47161	0.1181961074
1128.04190	0.1200085282
1126.61219	0.1218183935
1125.18248	0.1236097142
1123.75277	0.1253774613
1122.32306	0.1271205992
1120.89335	0.1288346350
1119.46364	0.1305079609
1118.03392	0.1321282983
1116.60421	0.1336896867
1115.17450	0.1351964325
1113.74479	0.1366580129
1112.31508	0.1380822808
1110.88537	0.1394704282
1109.45566	0.1408169866
1108.02595	0.1421091706
1106.59624	0.1433265358
1105.16653	0.1444417089
1103.73682	0.1454273462
1102.30710	0.1462669224
1100.87739	0.1469627470
1099.44768	0.1475354433
1098.01797	0.1480153203
1096.58826	0.1484328210
1095.15855	0.1488104612
1093.72884	0.1491565555
1092.29913	0.1494593024
1090.86942	0.1496862173
1089.43971	0.1497896761
1088.01000	0.1497229785
1086.58028	0.1494562328
1085.15057	0.1489820629
1083.72086	0.1483123899
1082.29115	0.1474668831
1080.86144	0.1464629024
1079.43173	0.1453104168
1078.00202	0.1440117508
1076.57231	0.1425676942
1075.14260	0.1409885436
1073.71289	0.1393012553
1072.28318	0.1375492662
1070.85346	0.1357779056
1069.42375	0.1340178251
1067.99404	0.1322742254
1066.56433	0.1305294931
1065.13462	0.1287534684
1063.70491	0.1269127578
1062.27520	0.1249769777
1060.84549	0.1229240671
1059.41578	0.1207450181
1057.98607	0.1184467077
1056.55636	0.1160484776
1055.12664	0.1135750785
1053.69693	0.1110533476
1052.26722	0.1085137576
1050.83751	0.1059919819
1049.40780	0.1035258248
1047.97809	0.1011460274
1046.54838	0.0988699421
1045.11867	0.0967027396
1043.68896	0.0946445614
1042.25925	0.0926973745
1040.82954	0.0908656940
1039.39983	0.0891521201
1037.97011	0.0875513777
1036.54040	0.0860503018
1035.11069	0.0846318007
1033.68098	0.0832808465
1032.25127	0.0819875449
1030.82156	0.0807466730
1029.39185	0.0795536786
1027.96214	0.0784032643
1026.53243	0.0772910491
1025.10272	0.0762170330
1023.67301	0.0751894936
1022.24329	0.0742251277
1020.81358	0.0733478069
1019.38387	0.0725855082
1017.95416	0.0719662160
1016.52445	0.0715155154
1015.09474	0.0712527558
1013.66503	0.0711884648
1012.23532	0.0713222176
1010.80561	0.0716435313
1009.37590	0.0721358731
1007.94619	0.0727822781
1006.51647	0.0735681653
1005.08676	0.0744799450
1003.65705	0.0754992738
1002.22734	0.0765971094
1000.79763	0.0777313486
999.36792	0.0788513944
997.93821	0.0799058825
996.50850	0.0808526874
995.07879	0.0816639513
993.64908	0.0823236108
992.21937	0.0828188509
990.78965	0.0831327364
989.35994	0.0832441300
987.93023	0.0831351802
986.50052	0.0827993676
985.07081	0.0822462365
983.64110	0.0814991817
982.21139	0.0805915445
980.78168	0.0795612335
979.35197	0.0784463361
977.92226	0.0772773474
976.49255	0.0760715306
975.06283	0.0748329163
973.63312	0.0735607743
972.20341	0.0722590610
970.77370	0.0709412396
969.34399	0.0696271285
967.91428	0.0683375001
966.48457	0.0670913458
965.05486	0.0659069642
963.62515	0.0648032427
962.19544	0.0637969896
960.76573	0.0628999844
959.33601	0.0621161833
957.90630	0.0614441745
956.47659	0.0608798116
955.04688	0.0604181774
953.61717	0.0600528270
952.18746	0.0597733259
950.75775	0.0595645159
949.32804	0.0594077148
947.89833	0.0592859834
946.46862	0.0591892004
945.03891	0.0591167361
943.60919	0.0590730160
942.17948	0.0590594932
940.74977	0.0590662844
939.32006	0.0590715036
937.89035	0.0590499751
936.46064	0.0589843206
935.03093	0.0588725172
933.60122	0.0587251522
932.17151	0.0585570708
930.74180	0.0583810620
929.31209	0.0582076088
927.88237	0.0580486618
926.45266	0.0579154789
925.02295	0.0578129403
923.59324	0.0577321015
922.16353	0.0576512143
920.73382	0.0575441010
919.30411	0.0573897101
917.87440	0.0571776740
916.44469	0.0569078662
915.01498	0.0565900691
913.58527	0.0562434793
912.15555	0.0558944270
910.72584	0.0555697232
909.29613	0.0552891232
907.86642	0.0550631806
906.43671	0.0548972450
905.00700	0.0547982976
903.57729	0.0547787659
902.14758	0.0548529811
900.71787	0.0550315939
899.28816	0.0553144962
897.85845	0.0556880049
896.42873	0.0561268739
894.99902	0.0566003583
893.56931	0.0570815988
892.13960	0.0575553887
890.70989	0.0580220334
889.28018	0.0584951676
887.85047	0.0589913167
886.42076	0.0595162399
884.99105	0.0600528866
883.56134	0.0605634376
882.13163	0.0610084534
880.70192	0.0613725521
879.27220	0.0616781190
877.84249	0.0619744323
876.41278	0.0623082966
874.98307	0.0626972020
873.55336	0.0631202534
872.12365	0.0635302886
870.69394	0.0638749823
869.26423	0.0641173720
867.83452	0.0642486066
866.40481	0.0642890036
864.97510	0.0642735139
863.54538	0.0642265454
862.11567	0.0641419813
860.68596	0.0639845058
859.25625	0.0637163147
857.82654	0.0633288622
856.39683	0.0628524125
854.96712	0.0623382963
853.53741	0.0618268177
852.10770	0.0613282509
850.67799	0.0608306751
849.24828	0.0603221245
847.81856	0.0598076358
846.38885	0.0593077913
844.95914	0.0588442683
843.52943	0.0584267229
842.09972	0.0580521859
840.67001	0.0577130616
839.24030	0.0574042462
837.81059	0.0571242012
836.38088	0.0568680279
834.95117	0.0566230379
833.52146	0.0563681647
832.09174	0.0560801551
830.66203	0.0557402112
829.23232	0.0553413406
827.80261	0.0548915751
826.37290	0.0544140190
824.94319	0.0539410040
823.51348	0.0535072647
822.08377	0.0531438179
820.65406	0.0528739914
819.22435	0.0527087450
817.79464	0.0526399799
816.36492	0.0526353642
814.93521	0.0526460856
813.50550	0.0526280291
812.07579	0.0525655597
810.64608	0.0524802841
809.21637	0.0524160229
807.78666	0.0524084009
806.35695	0.0524609759
804.92724	0.0525451675
803.49753	0.0526212789
802.06782	0.0526640601
800.63810	0.0526735000
799.20839	0.0526664555
797.77868	0.0526590608
796.34897	0.0526560806
794.91926	0.0526538007
793.48955	0.0526506752
792.05984	0.0526533648
790.63013	0.0526748709
789.20042	0.0527262203
787.77071	0.0528110750
786.34100	0.0529239886
784.91128	0.0530489236
783.48157	0.0531586222
782.05186	0.0532212369
780.62215	0.0532155000
779.19244	0.0531504899
777.76273	0.0530693717
776.33302	0.0530307628
774.90331	0.0530758053
773.47360	0.0532056689
772.04389	0.0533864461
770.61418	0.0535758175
769.18446	0.0537471063
767.75475	0.0538958125
766.32504	0.0540271513
764.89533	0.0541436076
763.46562	0.0542415865
762.03591	0.0543179661
760.60620	0.0543726496
759.17649	0.0544064194
757.74678	0.0544178039
756.31707	0.0544067137
754.88736	0.0543832704
753.45764	0.0543709770
752.02793	0.0543962382
750.59822	0.0544714741
749.16851	0.0545843206
747.73880	0.0547038615
746.30909	0.0547999106
744.87938	0.0548607334
743.44967	0.0548978336
742.01996	0.0549361072
740.59025	0.0549980104
739.16054	0.0550941527
737.73082	0.0552268587
736.30111	0.0553989485
734.87140	0.0556172691
733.44169	0.0558864214
732.01198	0.0561966039
730.58227	0.0565208048
729.15256	0.0568260103
727.72285	0.0570929646
726.29314	0.0573293269
724.86343	0.0575634278
723.43372	0.0578242093
722.00401	0.0581183471
720.57429	0.0584241748
719.14458	0.0587062761
717.71487	0.0589429885
716.28516	0.0591458939
714.85545	0.0593526922
713.42574	0.0596015714
711.99603	0.0599041097
710.56632	0.0602385253
709.13661	0.0605666526
707.70690	0.0608584285
706.27719	0.0611056723
704.84747	0.0613160580
703.41776	0.0614954382
701.98805	0.0616367683
700.55834	0.0617223680
699.12863	0.0617372282
697.69892	0.0616824143
696.26921	0.0615781769
694.83950	0.0614538975
693.40979	0.0613307245
691.98008	0.0612103902
690.55037	0.0610797182
689.12065	0.0609295480
687.69094	0.0607704371
686.26123	0.0606319830
684.83152	0.0605454929
683.40181	0.0605272241
681.97210	0.0605746284
680.54239	0.0606733859
679.11268	0.0608026236
677.68297	0.0609348193
676.25326	0.0610386617
674.82355	0.0610903539
673.39383	0.0610835925
671.96412	0.0610307381
670.53441	0.0609593056
669.10470	0.0609070919
667.67499	0.0609068237
666.24528	0.0609612092
664.81557	0.0610432811
663.38586	0.0611234009
661.95615	0.0611886941
660.52644	0.0612432659
659.09673	0.0612987988
657.66701	0.0613577664
656.23730	0.0613996573
654.80759	0.0613874011
653.37788	0.0612915531
651.94817	0.0611183047
650.51846	0.0609171279
649.08875	0.0607629642
647.65904	0.0607214607
646.22933	0.0608167686
644.79962	0.0610178672
643.36991	0.0612497032
641.94019	0.0614258982
640.51048	0.0614850298
639.08077	0.0614125989
637.65106	0.0612367056
636.22135	0.0610023476
634.79164	0.0607443266
633.36193	0.0604738407
631.93222	0.0601797402
630.50251	0.0598366931
629.07280	0.0594125241
627.64309	0.0588771440
626.21337	0.0582153350
624.78366	0.0574435107
623.35395	0.0566186421
621.92424	0.0558282509
620.49453	0.0551619865
619.06482	0.0546803139
617.63511	0.0543953292
616.20540	0.0542729124
614.77569	0.0542528182
613.34598	0.0542741716
611.91627	0.0542920940
610.48655	0.0542864613
609.05684	0.0542598888
607.62713	0.0542368628
606.19742	0.0542521141
604.76771	0.0543362424
603.33800	0.0544999391
601.90829	0.0547279380
600.47858	0.0549876392
599.04887	0.0552458167
