3997.47168	0.0580819808
3996.04197	0.0580509417
3994.61226	0.0580118857
3993.18255	0.0579754114
3991.75284	0.0579580143
3990.32312	0.0579739586
3988.89341	0.0580256730
3987.46370	0.0581008606
3986.03399	0.0581791364
3984.60428	0.0582443699
3983.17457	0.0582919717
3981.74486	0.0583234727
3980.31515	0.0583354943
3978.88544	0.0583165735
3977.45573	0.0582563020
3976.02602	0.0581613481
3974.59630	0.0580587834
3973.16659	0.0579809733
3971.73688	0.0579452068
3970.30717	0.0579437278
3968.87746	0.0579547323
3967.44775	0.0579616539
3966.01804	0.0579623953
3964.58833	0.0579651147
3963.15862	0.0579777472
3961.72891	0.0580020063
3960.29920	0.0580338091
3958.86948	0.0580659434
3957.43977	0.0580904149
3956.01006	0.0581005327
3954.58035	0.0580932535
3953.15064	0.0580704994
3951.72093	0.0580377467
3950.29122	0.0580004975
3948.86151	0.0579606481
3947.43180	0.0579156280
3946.00209	0.0578623600
3944.57238	0.0578022376
3943.14266	0.0577462316
3941.71295	0.0577136204
3940.28324	0.0577227585
3938.85353	0.0577776656
3937.42382	0.0578623004
3935.99411	0.0579468943
3934.56440	0.0579994023
3933.13469	0.0579998754
3931.70498	0.0579479001
3930.27527	0.0578620024
3928.84556	0.0577717796
3927.41585	0.0577064678
3925.98613	0.0576845594
3924.55642	0.0577047504
3923.12671	0.0577426553
3921.69700	0.0577632934
3920.26729	0.0577444285
3918.83758	0.0576957352
3917.40787	0.0576531366
3915.97816	0.0576526336
3914.54845	0.0577025637
3913.11874	0.0577775761
3911.68903	0.0578376651
3910.25931	0.0578485169
3908.82960	0.0577903204
3907.39989	0.0576581918
3905.97018	0.0574633069
3904.54047	0.0572372638
3903.11076	0.0570372865
3901.68105	0.0569305904
3900.25134	0.0569527522
3898.82163	0.0570803881
3897.39192	0.0572507605
3895.96221	0.0574012324
3894.53249	0.0574959293
3893.10278	0.0575331636
3891.67307	0.0575388670
3890.24336	0.0575418249
3888.81365	0.0575480908
3887.38394	0.0575361475
3885.95423	0.0574801192
3884.52452	0.0573806688
3883.09481	0.0572762191
3881.66510	0.0572202243
3880.23539	0.0572400987
3878.80567	0.0573152378
3877.37596	0.0573920123
3875.94625	0.0574173927
3874.51654	0.0573667251
3873.08683	0.0572556630
3871.65712	0.0571325272
3870.22741	0.0570486225
3868.79770	0.0570230894
3867.36799	0.0570390858
3865.93828	0.0570733622
3864.50857	0.0571213961
3863.07885	0.0571905188
3861.64914	0.0572749786
3860.21943	0.0573407300
3858.78972	0.0573346168
3857.36001	0.0572080873
3855.93030	0.0569588318
3854.50059	0.0566880405
3853.07088	0.0565912761
3851.64117	0.0567791015
3850.21146	0.0571541972
3848.78175	0.0575398728
3847.35203	0.0578145981
3845.92232	0.0579261258
3844.49261	0.0578696653
3843.06290	0.0576801859
3841.63319	0.0574293584
3840.20348	0.0572064631
3838.77377	0.0570805930
3837.34406	0.0570655689
3835.91435	0.0571238175
3834.48464	0.0572090931
3833.05493	0.0572992302
3831.62521	0.0573924258
3830.19550	0.0574857332
3828.76579	0.0575629249
3827.33608	0.0576024428
3825.90637	0.0575923026
3824.47666	0.0575404949
3823.04695	0.0574701615
3821.61724	0.0574070513
3820.18753	0.0573691465
3818.75782	0.0573681444
3817.32811	0.0574147031
3815.89839	0.0575134233
3814.46868	0.0576508008
3813.03897	0.0577927157
3811.60926	0.0578984134
3810.17955	0.0579388179
3808.74984	0.0579097718
3807.32013	0.0578351505
3805.89042	0.0577547476
3804.46071	0.0576993115
3803.03100	0.0576749817
3801.60129	0.0576758385
3800.17157	0.0577072948
3798.74186	0.0577872433
3797.31215	0.0579235554
3795.88244	0.0581001192
3794.45273	0.0582819656
3793.02302	0.0584330000
3791.59331	0.0585288145
3790.16360	0.0585619323
3788.73389	0.0585451350
3787.30418	0.0585114546
3785.87447	0.0585028082
3784.44475	0.0585462898
3783.01504	0.0586321428
3781.58533	0.0587178916
3780.15562	0.0587596484
3778.72591	0.0587451272
3777.29620	0.0586980395
3775.86649	0.0586512834
3774.43678	0.0586195514
3773.00707	0.0585978366
3771.57736	0.0585753806
3770.14765	0.0585505553
3768.71794	0.0585347675
3767.28822	0.0585412532
3765.85851	0.0585705228
3764.42880	0.0586063378
3762.99909	0.0586255938
3761.56938	0.0586144552
3760.13967	0.0585767440
3758.70996	0.0585286655
3757.28025	0.0584773049
3755.85054	0.0584077425
3754.42083	0.0582960583
3752.99112	0.0581386499
3751.56140	0.0579727478
3750.13169	0.0578602292
3748.70198	0.0578419529
3747.27227	0.0579251498
3745.84256	0.0581085533
3744.41285	0.0583884045
3742.98314	0.0587284416
3741.55343	0.0590528809
3740.12372	0.0592830442
3738.69401	0.0593730509
3737.26430	0.0593286529
3735.83458	0.0592191368
3734.40487	0.0591549687
3732.97516	0.0592117198
3731.54545	0.0593719520
3730.11574	0.0595613681
3728.68603	0.0597140677
3727.25632	0.0598025881
3725.82661	0.0598386228
3724.39690	0.0598612912
3722.96719	0.0599100813
3721.53748	0.0599982552
3720.10776	0.0601109117
3718.67805	0.0602218732
3717.24834	0.0603099018
3715.81863	0.0603649877
3714.38892	0.0603944063
3712.95921	0.0604332909
3711.52950	0.0605358817
3710.09979	0.0607300960
3708.67008	0.0609801561
3707.24037	0.0612173937
3705.81066	0.0614016540
3704.38094	0.0615419075
3702.95123	0.0616804734
3701.52152	0.0618612915
3700.09181	0.0621005632
3698.66210	0.0623787269
3697.23239	0.0626583546
3695.80268	0.0629089922
3694.37297	0.0631238148
3692.94326	0.0633278117
3691.51355	0.0635714009
3690.08384	0.0638981014
3688.65412	0.0642966852
3687.22441	0.0647017434
3685.79470	0.0650550574
3684.36499	0.0653424934
3682.93528	0.0655798689
3681.50557	0.0657898709
3680.07586	0.0660009459
3678.64615	0.0662549958
3677.21644	0.0666001365
3675.78673	0.0670612901
3674.35702	0.0676197186
3672.92730	0.0682441294
3671.49759	0.0689314827
3670.06788	0.0696946606
3668.63817	0.0705188811
3667.20846	0.0713592246
3665.77875	0.0721775964
3664.34904	0.0729653239
3662.91933	0.0737324357
3661.48962	0.0744885504
3660.05991	0.0752389282
3658.63020	0.0759919658
3657.20048	0.0767564774
3655.77077	0.0775290802
3654.34106	0.0782955214
3652.91135	0.0790631399
3651.48164	0.0798979476
3650.05193	0.0809081942
3648.62222	0.0821408927
3647.19251	0.0834951028
3645.76280	0.0848162919
3644.33309	0.0860399529
3642.90338	0.0871919096
3641.47366	0.0883189887
3640.04395	0.0894464180
3638.61424	0.0905716792
3637.18453	0.0916733593
3635.75482	0.0927247703
3634.32511	0.0937181488
3632.89540	0.0946964547
3631.46569	0.0957687423
3630.03598	0.0970543772
3628.60627	0.0985510051
3627.17656	0.1000849456
3625.74684	0.1014704779
3624.31713	0.1026695371
3622.88742	0.1037742123
3621.45771	0.1049107686
3620.02800	0.1061599627
3618.59829	0.1075134873
3617.16858	0.1088866368
3615.73887	0.1101889089
3614.30916	0.1113900691
3612.87945	0.1125313938
3611.44974	0.1136936173
3610.02003	0.1149410903
3608.59031	0.1162759811
3607.16060	0.1176389456
3605.73089	0.1189651787
3604.30118	0.1202285141
3602.87147	0.1214382946
3601.44176	0.1226137131
3600.01205	0.1237713620
3598.58234	0.1249322817
3597.15263	0.1261185259
3595.72292	0.1273312718
3594.29321	0.1285400838
3592.86349	0.1297124624
3591.43378	0.1308587044
3590.00407	0.1320384741
3588.57436	0.1333129257
3587.14465	0.1346781999
3585.71494	0.1360563487
3584.28523	0.1373630166
3582.85552	0.1385706812
3581.42581	0.1397055387
3579.99610	0.1408108026
3578.56639	0.1419204175
3577.13667	0.1430462301
3575.70696	0.1441729516
3574.27725	0.1452690065
3572.84754	0.1463143378
3571.41783	0.1473299712
3569.98812	0.1483817846
3568.55841	0.1495430768
3567.12870	0.1508345008
3565.69899	0.1521922946
3564.26928	0.1535204947
3562.83957	0.1547667831
3561.40985	0.1559396833
3559.98014	0.1570764929
3558.55043	0.1582142860
3557.12072	0.1593770683
3555.69101	0.1605690122
3554.26130	0.1617733389
3552.83159	0.1629623175
3551.40188	0.1641161442
3549.97217	0.1652393341
3548.54246	0.1663571596
3547.11275	0.1674984694
3545.68303	0.1686756909
3544.25332	0.1698763072
3542.82361	0.1710697562
3541.39390	0.1722266078
3539.96419	0.1733376235
3538.53448	0.1744181067
3537.10477	0.1754920185
3535.67506	0.1765669733
3534.24535	0.1776262671
3532.81564	0.1786496788
3531.38593	0.1796430051
3529.95621	0.1806429327
3528.52650	0.1816876531
3527.09679	0.1827864498
3525.66708	0.1839172989
3524.23737	0.1850519031
3522.80766	0.1861742884
3521.37795	0.1872767061
3519.94824	0.1883492619
3518.51853	0.1893794239
3517.08882	0.1903642118
3515.65911	0.1913144737
3514.22939	0.1922526360
3512.79968	0.1932042688
3511.36997	0.1941885054
3509.94026	0.1952048391
3508.51055	0.1962278634
3507.08084	0.1972226053
3505.65113	0.1981754005
3504.22142	0.1991081685
3502.79171	0.2000580877
3501.36200	0.2010390759
3499.93229	0.2020296603
3498.50257	0.2029974461
3497.07286	0.2039298415
3495.64315	0.2048363984
3494.21344	0.2057289630
3492.78373	0.2066081762
3491.35402	0.2074713856
3489.92431	0.2083228827
3488.49460	0.2091704160
3487.06489	0.2100155950
3485.63518	0.2108538896
3484.20547	0.2116856873
3482.77575	0.2125175446
3481.34604	0.2133498639
3479.91633	0.2141709328
3478.48662	0.2149687111
3477.05691	0.2157465219
3475.62720	0.2165212035
3474.19749	0.2173011601
3472.76778	0.2180757225
3471.33807	0.2188266814
3469.90836	0.2195502371
3468.47865	0.2202630937
3467.04893	0.2209863365
3465.61922	0.2217267901
3464.18951	0.2224719524
3462.75980	0.2231966406
3461.33009	0.2238757908
3459.90038	0.2244967669
3458.47067	0.2250689119
3457.04096	0.2256184220
3455.61125	0.2261703908
3454.18154	0.2267313302
3452.75183	0.2272909582
3451.32212	0.2278404534
3449.89240	0.2283853441
3448.46269	0.2289398760
3447.03298	0.2295123637
3445.60327	0.2301046550
3444.17356	0.2307194471
3442.74385	0.2313620150
3441.31414	0.2320241779
3439.88443	0.2326740474
3438.45472	0.2332714051
3437.02501	0.2337961197
3435.59530	0.2342603654
3434.16558	0.2346941233
3432.73587	0.2351200581
3431.30616	0.2355440855
3429.87645	0.2359654605
3428.44674	0.2363863438
3427.01703	0.2368147969
3425.58732	0.2372592986
3424.15761	0.2377247661
3422.72790	0.2382083237
3421.29819	0.2386945784
3419.86848	0.2391589731
3418.43876	0.2395828366
3417.00905	0.2399669886
3415.57934	0.2403287441
3414.14963	0.2406846285
3412.71992	0.2410358936
3411.29021	0.2413724512
3409.86050	0.2416889518
3408.43079	0.2419914007
3407.00108	0.2422907203
3405.57137	0.2425927222
3404.14166	0.2428970337
3402.71194	0.2432002425
3401.28223	0.2434990257
3399.85252	0.2437918037
3398.42281	0.2440801859
3396.99310	0.2443707287
3395.56339	0.2446680516
3394.13368	0.2449623495
3392.70397	0.2452285588
3391.27426	0.2454421967
3389.84455	0.2456006110
3388.41484	0.2457301319
3386.98512	0.2458701432
3385.55541	0.2460509241
3384.12570	0.2462816685
3382.69599	0.2465505749
3381.26628	0.2468338013
3379.83657	0.2471061647
3378.40686	0.2473522425
3376.97715	0.2475753427
3375.54744	0.2477957606
3374.11773	0.2480364591
3372.68802	0.2483063191
3371.25830	0.2485924363
3369.82859	0.2488677353
3368.39888	0.2491059452
3366.96917	0.2492959946
3365.53946	0.2494478673
3364.10975	0.2495860904
3362.68004	0.2497331798
3361.25033	0.2498967052
3359.82062	0.2500690520
3358.39091	0.2502470613
3356.96120	0.2504441440
3355.53148	0.2506818473
3354.10177	0.2509645224
3352.67206	0.2512662113
3351.24235	0.2515476942
3349.81264	0.2517911792
3348.38293	0.2520148456
3346.95322	0.2522576749
3345.52351	0.2525454462
3344.09380	0.2528731525
3342.66409	0.2532126307
3341.23438	0.2535327673
3339.80466	0.2538143694
3338.37495	0.2540534735
3336.94524	0.2542609274
3335.51553	0.2544577420
3334.08582	0.2546728551
3332.65611	0.2549360096
3331.22640	0.2552717924
3329.79669	0.2556901872
3328.36698	0.2561763823
3326.93727	0.2566897869
3325.50756	0.2571772039
3324.07784	0.2576011717
3322.64813	0.2579617500
3321.21842	0.2582941651
3319.78871	0.2586427331
3318.35900	0.2590382099
3316.92929	0.2594935000
3315.49958	0.2600156963
3314.06987	0.2606121302
3312.64016	0.2612813413
3311.21045	0.2619951367
3309.78074	0.2626945674
3308.35102	0.2633079588
3306.92131	0.2637822926
3305.49160	0.2641082406
3304.06189	0.2643274665
3302.63218	0.2645135224
3301.20247	0.2647385001
3299.77276	0.2650382817
3298.34305	0.2653977275
3296.91334	0.2657636106
3295.48363	0.2660740018
3294.05392	0.2662856877
3292.62421	0.2663859725
3291.19449	0.2663861215
3289.76478	0.2663072944
3288.33507	0.2661659122
3286.90536	0.2659644186
3285.47565	0.2656954825
3284.04594	0.2653537095
3282.61623	0.2649497390
3281.18652	0.2645091414
3279.75681	0.2640568316
3278.32710	0.2635999322
3276.89739	0.2631179988
3275.46767	0.2625721693
3274.03796	0.2619189024
3272.60825	0.2611252666
3271.17854	0.2601803541
3269.74883	0.2591001093
3268.31912	0.2579247653
3266.88941	0.2567043602
3265.45970	0.2554788888
3264.02999	0.2542659342
3262.60028	0.2530649602
3261.17057	0.2518713176
3259.74085	0.2506879568
3258.31114	0.2495228499
3256.88143	0.2483841777
3255.45172	0.2472769767
3254.02201	0.2462069541
3252.59230	0.2451815307
3251.16259	0.2442016304
3249.73288	0.2432530820
3248.30317	0.2423069030
3246.87346	0.2413334996
3245.44375	0.2403237969
3244.01403	0.2392998487
3242.58432	0.2383081913
3241.15461	0.2373959273
3239.72490	0.2365871519
3238.29519	0.2358716130
3236.86548	0.2352117896
3235.43577	0.2345627397
3234.00606	0.2338904887
3232.57635	0.2331816852
3231.14664	0.2324418426
3229.71693	0.2316882610
3228.28721	0.2309433669
3226.85750	0.2302290201
3225.42779	0.2295599282
3223.99808	0.2289373726
3222.56837	0.2283477783
3221.13866	0.2277664542
3219.70895	0.2271697819
3218.27924	0.2265462428
3216.84953	0.2259025723
3215.41982	0.2252587080
3213.99011	0.2246367782
3212.56039	0.2240470946
3211.13068	0.2234820127
3209.70097	0.2229205221
3208.27126	0.2223395556
3206.84155	0.2217230350
3205.41184	0.2210666388
3203.98213	0.2203750908
3202.55242	0.2196585685
3201.12271	0.2189316303
3199.69300	0.2182093114
3198.26329	0.2175027728
3196.83357	0.2168147713
3195.40386	0.2161391824
3193.97415	0.2154658437
3192.54444	0.2147866189
3191.11473	0.2140980214
3189.68502	0.2134017348
3188.25531	0.2127032131
3186.82560	0.2120104879
3185.39589	0.2113289833
3183.96618	0.2106574178
3182.53647	0.2099865079
3181.10675	0.2093032598
3179.67704	0.2085980326
3178.24733	0.2078678757
3176.81762	0.2071141601
3175.38791	0.2063401192
3173.95820	0.2055522352
3172.52849	0.2047620118
3171.09878	0.2039853185
3169.66907	0.2032350898
3168.23936	0.2025125623
3166.80965	0.2018032223
3165.37993	0.2010837793
3163.95022	0.2003344744
3162.52051	0.1995527744
3161.09080	0.1987593174
3159.66109	0.1979893893
3158.23138	0.1972724348
3156.80167	0.1966127008
3155.37196	0.1959842294
3153.94225	0.1953458935
3152.51254	0.1946664006
3151.08283	0.1939390004
3149.65311	0.1931799054
3148.22340	0.1924165785
3146.79369	0.1916765124
3145.36398	0.1909802258
3143.93427	0.1903349608
3142.50456	0.1897278726
3141.07485	0.1891292781
3139.64514	0.1885078102
3138.21543	0.1878522038
3136.78572	0.1871785074
3135.35601	0.1865168661
3133.92629	0.1858855784
3132.49658	0.1852771789
3131.06687	0.1846685708
3129.63716	0.1840464026
3128.20745	0.1834237576
3126.77774	0.1828329861
3125.34803	0.1823025048
3123.91832	0.1818359196
3122.48861	0.1814098954
3121.05890	0.1809896678
3119.62919	0.1805476397
3118.19948	0.1800736934
3116.76976	0.1795736104
3115.34005	0.1790613830
3113.91034	0.1785516143
3112.48063	0.1780537367
3111.05092	0.1775686294
3109.62121	0.1770922095
3108.19150	0.1766220480
3106.76179	0.1761653423
3105.33208	0.1757376194
3103.90237	0.1753496975
3102.47266	0.1749950945
3101.04294	0.1746494770
3099.61323	0.1742870063
3098.18352	0.1739002615
3096.75381	0.1735061854
3095.32410	0.1731331348
3093.89439	0.1727999449
3092.46468	0.1725050509
3091.03497	0.1722311080
3089.60526	0.1719573289
3088.17555	0.1716710031
3086.74584	0.1713680029
3085.31612	0.1710486412
3083.88641	0.1707108319
3082.45670	0.1703460813
3081.02699	0.1699403971
3079.59728	0.1694813520
3078.16757	0.1689680964
3076.73786	0.1684174985
3075.30815	0.1678606868
3073.87844	0.1673303097
3072.44873	0.1668456346
3071.01902	0.1664028764
3069.58930	0.1659768820
3068.15959	0.1655329317
3066.72988	0.1650427580
3065.30017	0.1644977331
3063.87046	0.1639111936
3062.44075	0.1633083671
3061.01104	0.1627114415
3059.58133	0.1621300578
3058.15162	0.1615606695
3056.72191	0.1609937847
3055.29220	0.1604200751
3053.86248	0.1598322392
3052.43277	0.1592254490
3051.00306	0.1585981995
3049.57335	0.1579546034
3048.14364	0.1573036760
3046.71393	0.1566518992
3045.28422	0.1559961438
3043.85451	0.1553262919
3042.42480	0.1546372324
3040.99509	0.1539405882
3039.56538	0.1532640010
3038.13566	0.1526312381
3036.70595	0.1520416588
3035.27624	0.1514653713
3033.84653	0.1508639157
3032.41682	0.1502185762
3030.98711	0.1495424956
3029.55740	0.1488664448
3028.12769	0.1482135057
3026.69798	0.1475862861
3025.26827	0.1469758302
3023.83856	0.1463805437
3022.40884	0.1458147019
3020.97913	0.1452994496
3019.54942	0.1448458135
3018.11971	0.1444437951
3016.69000	0.1440649480
3015.26029	0.1436734200
3013.83058	0.1432424337
3012.40087	0.1427653283
3010.97116	0.1422593296
3009.54145	0.1417571455
3008.11174	0.1412907094
3006.68202	0.1408774257
3005.25231	0.1405190229
3003.82260	0.1402111501
3002.39289	0.1399551034
3000.96318	0.1397582144
2999.53347	0.1396254152
2998.10376	0.1395508796
2996.67405	0.1395194978
2995.24434	0.1395155042
2993.81463	0.1395301372
2992.38492	0.1395642310
2990.95520	0.1396260262
2989.52549	0.1397297233
2988.09578	0.1398935467
2986.66607	0.1401360333
2985.23636	0.1404670477
2983.80665	0.1408812255
2982.37694	0.1413583308
2980.94723	0.1418727636
2979.51752	0.1424042434
2978.08781	0.1429438740
2976.65810	0.1434913725
2975.22838	0.1440484375
2973.79867	0.1446123421
2972.36896	0.1451755464
2970.93925	0.1457279027
2969.50954	0.1462579668
2968.07983	0.1467500627
2966.65012	0.1471806318
2965.22041	0.1475178152
2963.79070	0.1477271020
2962.36099	0.1477805376
2960.93128	0.1476632655
2959.50157	0.1473739445
2958.07185	0.1469226629
2956.64214	0.1463294625
2955.21243	0.1456278414
2953.78272	0.1448675394
2952.35301	0.1441121250
2950.92330	0.1434273720
2949.49359	0.1428634673
2948.06388	0.1424415112
2946.63417	0.1421526968
2945.20446	0.1419727504
2943.77475	0.1418802887
2942.34503	0.1418676972
2940.91532	0.1419360638
2939.48561	0.1420810670
2938.05590	0.1422818154
2936.62619	0.1425018162
2935.19648	0.1427001357
2933.76677	0.1428409517
2932.33706	0.1428981125
2930.90735	0.1428532153
2929.47764	0.1426959187
2928.04793	0.1424263865
2926.61821	0.1420576572
2925.18850	0.1416102499
2923.75879	0.1411001533
2922.32908	0.1405280381
2920.89937	0.1398760825
2919.46966	0.1391177475
2918.03995	0.1382334977
2916.61024	0.1372245550
2915.18053	0.1361160874
2913.75082	0.1349510998
2912.32111	0.1337767839
2910.89139	0.1326334774
2909.46168	0.1315477937
2908.03197	0.1305339336
2906.60226	0.1295959651
2905.17255	0.1287335902
2903.74284	0.1279468238
2902.31313	0.1272373348
2900.88342	0.1266039461
2899.45371	0.1260359287
2898.02400	0.1255095303
2896.59429	0.1249966919
2895.16457	0.1244796962
2893.73486	0.1239638627
2892.30515	0.1234753355
2890.87544	0.1230470091
2889.44573	0.1227033958
2888.01602	0.1224540025
2886.58631	0.1222969964
2885.15660	0.1222240329
2883.72689	0.1222231761
2882.29718	0.1222797036
2880.86747	0.1223758385
2879.43775	0.1224889755
2878.00804	0.1225854978
2876.57833	0.1226175278
2875.14862	0.1225272119
2873.71891	0.1222669110
2872.28920	0.1218194216
2870.85949	0.1212074235
2869.42978	0.1204852089
2868.00007	0.1197177395
2866.57036	0.1189628616
2865.14065	0.1182637066
2863.71093	0.1176472902
2862.28122	0.1171252355
2860.85151	0.1166915447
2859.42180	0.1163247675
2857.99209	0.1159915328
2856.56238	0.1156536937
2855.13267	0.1152716577
2853.70296	0.1148059890
2852.27325	0.1142197773
2850.84354	0.1134874001
2849.41383	0.1126076728
2847.98411	0.1116148084
2846.55440	0.1105769128
2845.12469	0.1095777750
2843.69498	0.1086868420
2842.26527	0.1079331264
2840.83556	0.1072994098
2839.40585	0.1067401543
2837.97614	0.1062126905
2836.54643	0.1056977510
2835.11672	0.1052011028
2833.68701	0.1047371402
2832.25729	0.1043134332
2830.82758	0.1039259136
2829.39787	0.1035643965
2827.96816	0.1032206863
2826.53845	0.1028913856
2825.10874	0.1025757417
2823.67903	0.1022727713
2822.24932	0.1019795761
2820.81961	0.1016933471
2819.38990	0.1014134884
2817.96019	0.1011438444
2816.53047	0.1008926183
2815.10076	0.1006654873
2813.67105	0.1004580259
2812.24134	0.1002524495
2810.81163	0.1000249758
2809.38192	0.0997604206
2807.95221	0.0994638354
2806.52250	0.0991578922
2805.09279	0.0988700464
2803.66308	0.0986174643
2802.23337	0.0983986333
2800.80366	0.0981978327
2799.37394	0.0979948789
2797.94423	0.0977770463
2796.51452	0.0975436717
2795.08481	0.0973044932
2793.65510	0.0970693976
2792.22539	0.0968394056
2790.79568	0.0966041088
2789.36597	0.0963508412
2787.93626	0.0960754678
2786.50655	0.0957870409
2785.07684	0.0955013111
2783.64712	0.0952315405
2782.21741	0.0949843526
2780.78770	0.0947615877
2779.35799	0.0945627093
2777.92828	0.0943845809
2776.49857	0.0942177474
2775.06886	0.0940488279
2773.63915	0.0938669592
2772.20944	0.0936689079
2770.77973	0.0934575349
2769.35002	0.0932356492
2767.92030	0.0930020064
2766.49059	0.0927541628
2765.06088	0.0924952105
2763.63117	0.0922343433
2762.20146	0.0919836760
2760.77175	0.0917495862
2759.34204	0.0915299058
2757.91233	0.0913183540
2756.48262	0.0911114067
2755.05291	0.0909116492
2753.62320	0.0907244533
2752.19348	0.0905504078
2750.76377	0.0903801620
2749.33406	0.0901985168
2747.90435	0.0899941102
2746.47464	0.0897675827
2745.04493	0.0895313770
2743.61522	0.0893021673
2742.18551	0.0890900493
2740.75580	0.0888932794
2739.32609	0.0887007266
2737.89638	0.0884988010
2736.46666	0.0882787928
2735.03695	0.0880418122
2733.60724	0.0877976343
2732.17753	0.0875601172
2730.74782	0.0873385966
2729.31811	0.0871336013
2727.88840	0.0869366378
2726.45869	0.0867366716
2725.02898	0.0865262449
2723.59927	0.0863032863
2722.16956	0.0860693678
2720.73984	0.0858258232
2719.31013	0.0855746940
2717.88042	0.0853215382
2716.45071	0.0850771889
2715.02100	0.0848535225
2713.59129	0.0846561491
2712.16158	0.0844775736
2710.73187	0.0842998847
2709.30216	0.0841054916
2707.87245	0.0838894248
2706.44274	0.0836633295
2705.01302	0.0834484547
2703.58331	0.0832600221
2702.15360	0.0830975026
2700.72389	0.0829459503
2699.29418	0.0827879310
2697.86447	0.0826156586
2696.43476	0.0824337602
2695.00505	0.0822526217
2693.57534	0.0820776522
2692.14563	0.0819044486
2690.71592	0.0817244053
2689.28620	0.0815344453
2687.85649	0.0813431889
2686.42678	0.0811680928
2684.99707	0.0810234472
2683.56736	0.0809100047
2682.13765	0.0808130205
2680.70794	0.0807099193
2679.27823	0.0805825964
2677.84852	0.0804244429
2676.41881	0.0802404657
2674.98910	0.0800416246
2673.55938	0.0798382387
2672.12967	0.0796360746
2670.69996	0.0794377923
2669.27025	0.0792453140
2667.84054	0.0790632293
2666.41083	0.0788973048
2664.98112	0.0787492916
2663.55141	0.0786137953
2662.12170	0.0784779042
2660.69199	0.0783286318
2659.26228	0.0781602636
2657.83256	0.0779776722
2656.40285	0.0777930245
2654.97314	0.0776181147
2653.54343	0.0774587467
2652.11372	0.0773139074
2650.68401	0.0771796927
2649.25430	0.0770529062
2647.82459	0.0769342259
2646.39488	0.0768281147
2644.96517	0.0767387748
2643.53546	0.0766657293
2642.10575	0.0766007528
2640.67603	0.0765291825
2639.24632	0.0764351487
2637.81661	0.0763093829
2636.38690	0.0761532709
2634.95719	0.0759800375
2633.52748	0.0758104771
2632.09777	0.0756647065
2630.66806	0.0755538866
2629.23835	0.0754753426
2627.80864	0.0754135624
2626.37893	0.0753476396
2624.94921	0.0752602294
2623.51950	0.0751460046
2622.08979	0.0750114173
2620.66008	0.0748713911
2619.23037	0.0747399852
2617.80066	0.0746248513
2616.37095	0.0745253637
2614.94124	0.0744365603
2613.51153	0.0743546784
2612.08182	0.0742785931
2610.65211	0.0742082670
2609.22239	0.0741404966
2607.79268	0.0740687400
2606.36297	0.0739873946
2604.93326	0.0738959387
2603.50355	0.0737998337
2602.07384	0.0737053230
2600.64413	0.0736142918
2599.21442	0.0735233054
2597.78471	0.0734280869
2596.35500	0.0733293593
2594.92529	0.0732345134
2593.49557	0.0731520057
2592.06586	0.0730855316
2590.63615	0.0730304047
2589.20644	0.0729764104
2587.77673	0.0729148015
2586.34702	0.0728447288
2584.91731	0.0727727264
2583.48760	0.0727087334
2582.05789	0.0726595521
2580.62818	0.0726258978
2579.19847	0.0726023018
2577.76875	0.0725806132
2576.33904	0.0725547299
2574.90933	0.0725233778
2573.47962	0.0724908561
2572.04991	0.0724636018
2570.62020	0.0724443644
2569.19049	0.0724287406
2567.76078	0.0724087059
2566.33107	0.0723790079
2564.90136	0.0723435059
2563.47165	0.0723121688
2562.04193	0.0722947717
2560.61222	0.0722922310
2559.18251	0.0722951964
2557.75280	0.0722901523
2556.32309	0.0722679272
2554.89338	0.0722304136
2553.46367	0.0721909180
2552.03396	0.0721680000
2550.60425	0.0721751451
2549.17454	0.0722138509
2547.74483	0.0722706765
2546.31511	0.0723240897
2544.88540	0.0723543614
2543.45569	0.0723530501
2542.02598	0.0723258033
2540.59627	0.0722882897
2539.16656	0.0722585097
2537.73685	0.0722486973
2536.30714	0.0722610503
2534.87743	0.0722880438
2533.44772	0.0723189861
2532.01801	0.0723463818
2530.58829	0.0723688006
2529.15858	0.0723892897
2527.72887	0.0724106953
2526.29916	0.0724340603
2524.86945	0.0724592581
2523.43974	0.0724866390
2522.01003	0.0725165531
2520.58032	0.0725470185
2519.15061	0.0725734532
2517.72090	0.0725907385
2516.29119	0.0725955740
2514.86147	0.0725885406
2513.43176	0.0725739747
2512.00205	0.0725595355
2510.57234	0.0725548565
2509.14263	0.0725678876
2507.71292	0.0726019666
2506.28321	0.0726520568
2504.85350	0.0727081820
2503.42379	0.0727606416
2501.99408	0.0728045627
2500.56437	0.0728412047
2499.13465	0.0728745162
2497.70494	0.0729073957
2496.27523	0.0729394853
2494.84552	0.0729675665
2493.41581	0.0729881749
2491.98610	0.0730015263
2490.55639	0.0730135590
2489.12668	0.0730342045
2487.69697	0.0730701610
2486.26726	0.0731190145
2484.83755	0.0731700808
2483.40784	0.0732111335
2481.97812	0.0732381940
2480.54841	0.0732578039
2479.11870	0.0732813999
2477.68899	0.0733167902
2476.25928	0.0733629167
2474.82957	0.0734123290
2473.39986	0.0734561011
2471.97015	0.0734890327
2470.54044	0.0735100284
2469.11073	0.0735221729
2467.68102	0.0735302344
2466.25130	0.0735384524
2464.82159	0.0735491589
2463.39188	0.0735612065
2461.96217	0.0735717863
2460.53246	0.0735790804
2459.10275	0.0735839009
2457.67304	0.0735900626
2456.24333	0.0736013129
2454.81362	0.0736193806
2453.38391	0.0736412182
2451.95420	0.0736609399
2450.52448	0.0736726820
2449.09477	0.0736750439
2447.66506	0.0736722872
2446.23535	0.0736723468
2444.80564	0.0736823454
2443.37593	0.0737054422
2441.94622	0.0737395510
2440.51651	0.0737797394
2439.08680	0.0738204867
2437.65709	0.0738582835
2436.22738	0.0738905370
2434.79766	0.0739144161
2433.36795	0.0739253685
2431.93824	0.0739190131
2430.50853	0.0738940984
2429.07882	0.0738549754
2427.64911	0.0738102645
2426.21940	0.0737695545
2424.78969	0.0737393722
2423.35998	0.0737216398
2421.93027	0.0737149492
2420.50056	0.0737155005
2419.07084	0.0737176836
2417.64113	0.0737140626
2416.21142	0.0736990348
2414.78171	0.0736715794
2413.35200	0.0736372620
2411.92229	0.0736064985
2410.49258	0.0735884383
2409.06287	0.0735861361
2407.63316	0.0735939294
2406.20345	0.0735996887
2404.77374	0.0735908896
2403.34402	0.0735617578
2401.91431	0.0735174790
2400.48460	0.0734708533
2399.05489	0.0734355003
2397.62518	0.0734175369
2396.19547	0.0734148100
2394.76576	0.0734196231
2393.33605	0.0734240040
2391.90634	0.0734220445
2390.47663	0.0734091997
2389.04692	0.0733807907
2387.61720	0.0733321458
2386.18749	0.0732604712
2384.75778	0.0731671378
2383.32807	0.0730582774
2381.89836	0.0729418397
2380.46865	0.0728219226
2379.03894	0.0726926029
2377.60923	0.0725368038
2376.17952	0.0723333880
2374.74981	0.0720705017
2373.32010	0.0717571452
2371.89038	0.0714207590
2370.46067	0.0710934475
2369.03096	0.0707957223
2367.60125	0.0705323368
2366.17154	0.0702970773
2364.74183	0.0700831786
2363.31212	0.0698916093
2361.88241	0.0697362050
2360.45270	0.0696436316
2359.02299	0.0696409568
2357.59328	0.0697386637
2356.16356	0.0699222311
2354.73385	0.0701578334
2353.30414	0.0704050437
2351.87443	0.0706285089
2350.44472	0.0707999915
2349.01501	0.0708968341
2347.58530	0.0709004626
2346.15559	0.0708009079
2344.72588	0.0706081390
2343.29617	0.0703609064
2341.86646	0.0701163039
2340.43674	0.0699170008
2339.00703	0.0697711632
2337.57732	0.0696655437
2336.14761	0.0695896968
2334.71790	0.0695474297
2333.28819	0.0695501342
2331.85848	0.0696016699
2330.42877	0.0696858168
2328.99906	0.0697714016
2327.56935	0.0698312595
2326.13964	0.0698593557
2324.70993	0.0698736757
2323.28021	0.0699008852
2321.85050	0.0699574426
2320.42079	0.0700408667
2318.99108	0.0701332837
2317.56137	0.0702143088
2316.13166	0.0702705085
2314.70195	0.0703007653
2313.27224	0.0703149140
2311.84253	0.0703285187
2310.41282	0.0703544244
2308.98311	0.0703945383
2307.55339	0.0704394430
2306.12368	0.0704748183
2304.69397	0.0704905316
2303.26426	0.0704865456
2301.83455	0.0704716817
2300.40484	0.0704567954
2298.97513	0.0704473555
2297.54542	0.0704399571
2296.11571	0.0704247728
2294.68600	0.0703928024
2293.25629	0.0703420639
2291.82657	0.0702786371
2290.39686	0.0702130869
2288.96715	0.0701543987
2287.53744	0.0701056570
2286.10773	0.0700643808
2284.67802	0.0700251758
2283.24831	0.0699839368
2281.81860	0.0699399933
2280.38889	0.0698946491
2278.95918	0.0698484108
2277.52947	0.0697985515
2276.09975	0.0697407648
2274.67004	0.0696733221
2273.24033	0.0696001798
2271.81062	0.0695289001
2270.38091	0.0694657713
2268.95120	0.0694120154
2267.52149	0.0693643615
2266.09178	0.0693187192
2264.66207	0.0692725927
2263.23236	0.0692250505
2261.80265	0.0691751763
2260.37293	0.0691227838
2258.94322	0.0690696090
2257.51351	0.0690195411
2256.08380	0.0689756945
2254.65409	0.0689384639
2253.22438	0.0689051524
2251.79467	0.0688723028
2250.36496	0.0688378140
2248.93525	0.0688008666
2247.50554	0.0687611103
2246.07583	0.0687172860
2244.64611	0.0686682239
2243.21640	0.0686147735
2241.78669	0.0685602725
2240.35698	0.0685098022
2238.92727	0.0684677362
2237.49756	0.0684354603
2236.06785	0.0684104264
2234.63814	0.0683871582
2233.20843	0.0683595538
2231.77872	0.0683231056
2230.34901	0.0682763606
2228.91929	0.0682213530
2227.48958	0.0681622326
2226.05987	0.0681036040
2224.63016	0.0680485293
2223.20045	0.0679976940
2221.77074	0.0679508373
2220.34103	0.0679091290
2218.91132	0.0678755343
2217.48161	0.0678518638
2216.05190	0.0678350106
2214.62219	0.0678170025
2213.19247	0.0677888617
2211.76276	0.0677454099
2210.33305	0.0676882938
2208.90334	0.0676231608
2207.47363	0.0675555095
2206.04392	0.0674884021
2204.61421	0.0674228221
2203.18450	0.0673610866
2201.75479	0.0673065558
2200.32508	0.0672611669
2198.89537	0.0672226325
2197.46565	0.0671848580
2196.03594	0.0671426207
2194.60623	0.0670959726
2193.17652	0.0670495704
2191.74681	0.0670077950
2190.31710	0.0669699833
2188.88739	0.0669306591
2187.45768	0.0668844581
2186.02797	0.0668289587
2184.59826	0.0667645931
2183.16855	0.0666913986
2181.73883	0.0666091591
2180.30912	0.0665206537
2178.87941	0.0664331988
2177.44970	0.0663550198
2176.01999	0.0662892759
2174.59028	0.0662309304
2173.16057	0.0661705434
2171.73086	0.0661024824
2170.30115	0.0660295412
2168.87144	0.0659605041
2167.44173	0.0659029260
2166.01202	0.0658570454
2164.58230	0.0658147857
2163.15259	0.0657665655
2161.72288	0.0657082573
2160.29317	0.0656448379
2158.86346	0.0655863136
2157.43375	0.0655398294
2156.00404	0.0655038878
2154.57433	0.0654699057
2153.14462	0.0654286444
2151.71491	0.0653757453
2150.28520	0.0653126463
2148.85548	0.0652437806
2147.42577	0.0651732758
2145.99606	0.0651025400
2144.56635	0.0650302246
2143.13664	0.0649529248
2141.70693	0.0648689121
2140.27722	0.0647813082
2138.84751	0.0646992475
2137.41780	0.0646327659
2135.98809	0.0645863265
2134.55838	0.0645554811
2133.12866	0.0645306110
2131.69895	0.0645036399
2130.26924	0.0644712076
2128.83953	0.0644338578
2127.40982	0.0643922687
2125.98011	0.0643463656
2124.55040	0.0642960295
2123.12069	0.0642415211
2121.69098	0.0641826689
2120.26127	0.0641176477
2118.83156	0.0640456080
2117.40184	0.0639695674
2115.97213	0.0638962090
2114.54242	0.0638327301
2113.11271	0.0637815818
2111.68300	0.0637385845
2110.25329	0.0636956915
2108.82358	0.0636460558
2107.39387	0.0635888129
2105.96416	0.0635283738
2104.53445	0.0634711459
2103.10474	0.0634214431
2101.67502	0.0633790940
2100.24531	0.0633404255
2098.81560	0.0633002296
2097.38589	0.0632540509
2095.95618	0.0631988123
2094.52647	0.0631327331
2093.09676	0.0630554184
2091.66705	0.0629684776
2090.23734	0.0628764331
2088.80763	0.0627861246
2087.37792	0.0627052486
2085.94820	0.0626396686
2084.51849	0.0625908971
2083.08878	0.0625555888
2081.65907	0.0625269786
2080.22936	0.0624983124
2078.79965	0.0624647737
2077.36994	0.0624241233
2075.94023	0.0623757392
2074.51052	0.0623191409
2073.08081	0.0622543357
2071.65110	0.0621828213
2070.22138	0.0621070154
2068.79167	0.0620290712
2067.36196	0.0619504564
2065.93225	0.0618720055
2064.50254	0.0617948510
2063.07283	0.0617207550
2061.64312	0.0616507307
2060.21341	0.0615838766
2058.78370	0.0615186132
2057.35399	0.0614546724
2055.92428	0.0613947660
2054.49456	0.0613429770
2053.06485	0.0613012128
2051.63514	0.0612661280
2050.20543	0.0612306260
2048.77572	0.0611880384
2047.34601	0.0611365996
2045.91630	0.0610793009
2044.48659	0.0610202514
2043.05688	0.0609609708
2041.62717	0.0609005690
2040.19746	0.0608379394
2038.76774	0.0607740991
2037.33803	0.0607112795
2035.90832	0.0606501065
2034.47861	0.0605881996
2033.04890	0.0605227910
2031.61919	0.0604537874
2030.18948	0.0603857823
2028.75977	0.0603252798
2027.33006	0.0602754019
2025.90035	0.0602345690
2024.47064	0.0601974018
2023.04092	0.0601581223
2021.61121	0.0601129644
2020.18150	0.0600593053
2018.75179	0.0599950142
2017.32208	0.0599194132
2015.89237	0.0598374642
2014.46266	0.0597589165
2013.03295	0.0596958883
2011.60324	0.0596552305
2010.17353	0.0596350692
2008.74382	0.0596252084
2007.31411	0.0596115179
2005.88439	0.0595831610
2004.45468	0.0595376454
2003.02497	0.0594824553
2001.59526	0.0594300367
2000.16555	0.0593905300
1998.73584	0.0593645610
1997.30613	0.0593436100
1995.87642	0.0593160689
1994.44671	0.0592752397
1993.01700	0.0592232011
1991.58729	0.0591685846
1990.15757	0.0591227263
1988.72786	0.0590952896
1987.29815	0.0590915829
1985.86844	0.0591092892
1984.43873	0.0591384768
1983.00902	0.0591637492
1981.57931	0.0591709577
1980.14960	0.0591532178
1978.71989	0.0591136217
1977.29018	0.0590626076
1975.86047	0.0590132028
1974.43075	0.0589754246
1973.00104	0.0589524768
1971.57133	0.0589388087
1970.14162	0.0589244291
1968.71191	0.0589021631
1967.28220	0.0588738807
1965.85249	0.0588496029
1964.42278	0.0588388443
1962.99307	0.0588447712
1961.56336	0.0588627346
1960.13365	0.0588845238
1958.70393	0.0589037053
1957.27422	0.0589169264
1955.84451	0.0589250810
1954.41480	0.0589323752
1952.98509	0.0589430481
1951.55538	0.0589577518
1950.12567	0.0589716882
1948.69596	0.0589767583
1947.26625	0.0589677468
1945.83654	0.0589468703
1944.40683	0.0589232706
1942.97711	0.0589091294
1941.54740	0.0589141101
1940.11769	0.0589393117
1938.68798	0.0589777678
1937.25827	0.0590167604
1935.82856	0.0590453781
1934.39885	0.0590591654
1932.96914	0.0590605028
1931.53943	0.0590544827
1930.10972	0.0590434484
1928.68001	0.0590275824
1927.25029	0.0590078644
1925.82058	0.0589883812
1924.39087	0.0589744449
1922.96116	0.0589701459
1921.53145	0.0589772351
1920.10174	0.0589963868
1918.67203	0.0590269305
1917.24232	0.0590651892
1915.81261	0.0591057315
1914.38290	0.0591452383
1912.95319	0.0591850504
1911.52347	0.0592294000
1910.09376	0.0592814125
1908.66405	0.0593403466
1907.23434	0.0594029650
1905.80463	0.0594650917
1904.37492	0.0595215559
1902.94521	0.0595675446
1901.51550	0.0596007705
1900.08579	0.0596232191
1898.65608	0.0596396104
1897.22637	0.0596538670
1895.79665	0.0596682094
1894.36694	0.0596852861
1892.93723	0.0597098507
1891.50752	0.0597479865
1890.07781	0.0598022901
1888.64810	0.0598712750
1887.21839	0.0599495433
1885.78868	0.0600295812
1884.35897	0.0601024106
1882.92926	0.0601607114
1881.49955	0.0602036752
1880.06983	0.0602397434
1878.64012	0.0602804273
1877.21041	0.0603302754
1875.78070	0.0603822097
1874.35099	0.0604225509
1872.92128	0.0604397766
1871.49157	0.0604307018
1870.06186	0.0604043715
1868.63215	0.0603832528
1867.20244	0.0603960752
1865.77273	0.0604587272
1864.34301	0.0605625473
1862.91330	0.0606810041
1861.48359	0.0607889257
1860.05388	0.0608786196
1858.62417	0.0609603748
1857.19446	0.0610481389
1855.76475	0.0611450039
1854.33504	0.0612412393
1852.90533	0.0613244064
1851.47562	0.0613882951
1850.04591	0.0614343956
1848.61619	0.0614678822
1847.18648	0.0614972003
1845.75677	0.0615338236
1844.32706	0.0615872145
1842.89735	0.0616581589
1841.46764	0.0617405102
1840.03793	0.0618298911
1838.60822	0.0619265139
1837.17851	0.0620294325
1835.74880	0.0621311180
1834.31909	0.0622199811
1832.88938	0.0622891150
1831.45966	0.0623415522
1830.02995	0.0623892471
1828.60024	0.0624485426
1827.17053	0.0625355020
1825.74082	0.0626599714
1824.31111	0.0628189072
1822.88140	0.0629950836
1821.45169	0.0631662682
1820.02198	0.0633178428
1818.59227	0.0634469390
1817.16256	0.0635571703
1815.73284	0.0636524707
1814.30313	0.0637388900
1812.87342	0.0638295487
1811.44371	0.0639419183
1810.01400	0.0640841350
1808.58429	0.0642459616
1807.15458	0.0644062608
1805.72487	0.0645513311
1804.29516	0.0646828711
1802.86545	0.0648123771
1801.43574	0.0649503097
1800.00602	0.0650982410
1798.57631	0.0652467906
1797.14660	0.0653814897
1795.71689	0.0654932633
1794.28718	0.0655912161
1792.85747	0.0657059401
1791.42776	0.0658699721
1789.99805	0.0660865977
1788.56834	0.0663257986
1787.13863	0.0665529072
1785.70892	0.0667533949
1784.27920	0.0669333786
1782.84949	0.0671053976
1781.41978	0.0672773942
1779.99007	0.0674515143
1778.56036	0.0676273406
1777.13065	0.0678018108
1775.70094	0.0679699704
1774.27123	0.0681338906
1772.84152	0.0683145672
1771.41181	0.0685439333
1769.98210	0.0688323826
1768.55238	0.0691544712
1767.12267	0.0694765598
1765.69296	0.0697867870
1764.26325	0.0700964704
1762.83354	0.0704228207
1761.40383	0.0707775652
1759.97412	0.0711674839
1758.54441	0.0715980753
1757.11470	0.0720680878
1755.68499	0.0725651905
1754.25528	0.0730749071
1752.82556	0.0735992938
1751.39585	0.0741609782
1749.96614	0.0747808218
1748.53643	0.0754501820
1747.10672	0.0761376321
1745.67701	0.0768242851
1744.24730	0.0775131434
1742.81759	0.0782050788
1741.38788	0.0788783729
1739.95817	0.0795025378
1738.52846	0.0800701976
1737.09874	0.0806148574
1735.66903	0.0811994225
1734.23932	0.0818855688
1732.80961	0.0826996714
1731.37990	0.0836209953
1729.95019	0.0846103504
1728.52048	0.0856433585
1727.09077	0.0867155269
1725.66106	0.0878273547
1724.23135	0.0889717117
1722.80164	0.0901400596
1721.37192	0.0913517401
1719.94221	0.0926869884
1718.51250	0.0942707136
1717.08279	0.0961528569
1715.65308	0.0981812775
1714.22337	0.1001104712
1712.79366	0.1018375531
1711.36395	0.1034421921
1709.93424	0.1050673500
1708.50453	0.1068254188
1707.07482	0.1087760553
1705.64510	0.1109609902
1704.21539	0.1134648100
1702.78568	0.1164539382
1701.35597	0.1201388314
1699.92626	0.1246144176
1698.49655	0.1296428889
1697.06684	0.1346625239
1695.63713	0.1391569376
1694.20742	0.1429581195
1692.77771	0.1461807936
1691.34800	0.1490348876
1689.91828	0.1517442912
1688.48857	0.1545700133
1687.05886	0.1578380615
1685.62915	0.1618224382
1684.19944	0.1664160937
1682.76973	0.1710026264
1681.34002	0.1749947369
1679.91031	0.1783422828
1678.48060	0.1813744456
1677.05089	0.1844404340
1675.62118	0.1877299398
1674.19147	0.1912708879
1672.76175	0.1950267851
1671.33204	0.1989681721
1669.90233	0.2030269802
1668.47262	0.2070514113
1667.04291	0.2109045833
1665.61320	0.2145926803
1664.18349	0.2182188183
1662.75378	0.2217869163
1661.32407	0.2250849456
1659.89436	0.2278103977
1658.46465	0.2297815382
1657.03493	0.2309799045
1655.60522	0.2314216048
1654.17551	0.2310665250
1652.74580	0.2299153507
1651.31609	0.2281652391
1649.88638	0.2260871679
1648.45667	0.2238109112
1647.02696	0.2213831693
1645.59725	0.2189295739
1644.16754	0.2166369706
1642.73783	0.2145936489
1641.30811	0.2127174437
1639.87840	0.2108239532
1638.44869	0.2087349743
1637.01898	0.2063942403
1635.58927	0.2039428800
1634.15956	0.2015986443
1632.72985	0.1994123161
1631.30014	0.1972204894
1629.87043	0.1947702765
1628.44072	0.1918066591
1627.01101	0.1881252527
1625.58129	0.1836701632
1624.15158	0.1786144376
1622.72187	0.1732618958
1621.29216	0.1678071618
1619.86245	0.1622205228
1618.43274	0.1563930809
1617.00303	0.1504154801
1615.57332	0.1446799934
1614.14361	0.1396126747
1612.71390	0.1353304535
1611.28419	0.1316370517
1609.85447	0.1282730252
1608.42476	0.1251177937
1606.99505	0.1222141907
1605.56534	0.1196577922
1604.13563	0.1174861789
1602.70592	0.1156681553
1601.27621	0.1141588017
1599.84650	0.1129285544
1598.41679	0.1119442582
1596.98708	0.1111556813
1595.55737	0.1105164811
1594.12765	0.1100125238
1592.69794	0.1096606031
1591.26823	0.1094810367
1589.83852	0.1094819084
1588.40881	0.1096648052
1586.97910	0.1100277677
1585.54939	0.1105506346
1584.11968	0.1111860424
1582.68997	0.1118842736
1581.26026	0.1126350537
1579.83055	0.1134880707
1578.40083	0.1145226732
1576.97112	0.1157731041
1575.54141	0.1171729341
1574.11170	0.1186051145
1572.68199	0.1200225502
1571.25228	0.1214869097
1569.82257	0.1230861545
1568.39286	0.1248212308
1566.96315	0.1265784800
1565.53344	0.1282319725
1564.10373	0.1297701597
1562.67401	0.1313490272
1561.24430	0.1332785785
1559.81459	0.1358809620
1558.38488	0.1390957832
1556.95517	0.1422837228
1555.52546	0.1448561847
1554.09575	0.1467673481
1552.66604	0.1482239217
1551.23633	0.1493601203
1549.80662	0.1501785219
1548.37691	0.1506206691
1546.94719	0.1506399363
1545.51748	0.1502141953
1544.08777	0.1493100375
1542.65806	0.1478904486
1541.22835	0.1460501552
1539.79864	0.1441040933
1538.36893	0.1423345059
1536.93922	0.1407341659
1535.50951	0.1391278356
1534.07980	0.1373893619
1532.65009	0.1355179548
1531.22037	0.1335939467
1529.79066	0.1316788793
1528.36095	0.1297588497
1526.93124	0.1277706176
1525.50153	0.1256702393
1524.07182	0.1234812140
1522.64211	0.1212928444
1521.21240	0.1192071885
1519.78269	0.1172686890
1518.35298	0.1154356673
1516.92327	0.1136148274
1515.49356	0.1117243022
1514.06384	0.1097175553
1512.63413	0.1075443849
1511.20442	0.1050824523
1509.77471	0.1021222323
1508.34500	0.0985555500
1506.91529	0.0947510898
1505.48558	0.0914789364
1504.05587	0.0891344473
1502.62616	0.0874755085
1501.19645	0.0860732123
1499.76674	0.0846434683
1498.33702	0.0831205770
1496.90731	0.0816131234
1495.47760	0.0802623555
1494.04789	0.0791032910
1492.61818	0.0780681968
1491.18847	0.0770881176
1489.75876	0.0761719346
1488.32905	0.0754042342
1486.89934	0.0748656690
1485.46963	0.0745630711
1484.03992	0.0744448230
1482.61020	0.0744564682
1481.18049	0.0745709389
1479.75078	0.0747891515
1478.32107	0.0751325563
1476.89136	0.0756421536
1475.46165	0.0763684511
1474.03194	0.0773207769
1472.60223	0.0783954784
1471.17252	0.0793978795
1469.74281	0.0801784992
1468.31310	0.0807102621
1466.88338	0.0810528025
1465.45367	0.0812910274
1464.02396	0.0814948753
1462.59425	0.0817055032
1461.16454	0.0819478035
1459.73483	0.0822490230
1458.30512	0.0826246515
1456.87541	0.0830244794
1455.44570	0.0833229944
1454.01599	0.0834165215
1452.58628	0.0832907259
1451.15656	0.0829824880
1449.72685	0.0825349540
1448.29714	0.0819930136
1446.86743	0.0814096555
1445.43772	0.0808340386
1444.00801	0.0802873001
1442.57830	0.0797527581
1441.14859	0.0791883692
1439.71888	0.0785499811
1438.28917	0.0778208002
1436.85946	0.0770395547
1435.42974	0.0762972236
1434.00003	0.0756878778
1432.57032	0.0752621070
1431.14061	0.0750303343
1429.71090	0.0749862790
1428.28119	0.0751162469
1426.85148	0.0753930211
1425.42177	0.0757771283
1423.99206	0.0762303025
1422.56235	0.0767325386
1421.13264	0.0772888884
1419.70292	0.0779169351
1418.27321	0.0786169916
1416.84350	0.0793537199
1415.41379	0.0800774843
1413.98408	0.0807587057
1412.55437	0.0813980103
1411.12466	0.0820117071
1409.69495	0.0826130658
1408.26524	0.0831997618
1406.83553	0.0837521553
1405.40582	0.0842373371
1403.97610	0.0846170783
1402.54639	0.0848584324
1401.11668	0.0849445164
1399.68697	0.0848778188
1398.25726	0.0846752748
1396.82755	0.0843619630
1395.39784	0.0839666203
1393.96813	0.0835124254
1392.53842	0.0830044523
1391.10871	0.0824235529
1389.67900	0.0817370936
1388.24928	0.0809250027
1386.81957	0.0800049007
1385.38986	0.0790330172
1383.96015	0.0780699328
1382.53044	0.0771469176
1381.10073	0.0762641504
1379.67102	0.0754151046
1378.24131	0.0746076107
1376.81160	0.0738676116
1375.38189	0.0732296705
1373.95218	0.0727195665
1372.52246	0.0723394752
1371.09275	0.0720622838
1369.66304	0.0718399957
1368.23333	0.0716206953
1366.80362	0.0713696852
1365.37391	0.0710834786
1363.94420	0.0707946867
1362.51449	0.0705559701
1361.08478	0.0704101250
1359.65507	0.0703651682
1358.22536	0.0703954548
1356.79565	0.0704623684
1355.36593	0.0705314875
1353.93622	0.0705814883
1352.50651	0.0706056729
1351.07680	0.0706081092
1349.64709	0.0705968961
1348.21738	0.0705772266
1346.78767	0.0705497563
1345.35796	0.0705133975
1343.92825	0.0704703480
1342.49854	0.0704290941
1341.06883	0.0704041868
1339.63911	0.0704111308
1338.20940	0.0704578012
1336.77969	0.0705392510
1335.34998	0.0706435293
1333.92027	0.0707636401
1332.49056	0.0709046349
1331.06085	0.0710793361
1329.63114	0.0712970793
1328.20143	0.0715552196
1326.77172	0.0718414634
1325.34201	0.0721424744
1323.91229	0.0724517033
1322.48258	0.0727691203
1321.05287	0.0730953366
1319.62316	0.0734256655
1318.19345	0.0737505332
1316.76374	0.0740580261
1315.33403	0.0743380934
1313.90432	0.0745866448
1312.47461	0.0748073608
1311.04490	0.0750100315
1309.61519	0.0752059668
1308.18547	0.0754022598
1306.75576	0.0755997896
1305.32605	0.0757940188
1303.89634	0.0759787112
1302.46663	0.0761474073
1301.03692	0.0762961134
1299.60721	0.0764245316
1298.17750	0.0765369609
1296.74779	0.0766394809
1295.31808	0.0767362714
1293.88837	0.0768273473
1292.45865	0.0769096538
1291.02894	0.0769809484
1289.59923	0.0770420581
1288.16952	0.0770976692
1286.73981	0.0771536902
1285.31010	0.0772155300
1283.88039	0.0772852972
1282.45068	0.0773615390
1281.02097	0.0774397179
1279.59126	0.0775164217
1278.16155	0.0775948763
1276.73183	0.0776869878
1275.30212	0.0778114498
1273.87241	0.0779872462
1272.44270	0.0782280415
1271.01299	0.0785397515
1269.58328	0.0789225176
1268.15357	0.0793762505
1266.72386	0.0799054429
1265.29415	0.0805205256
1263.86444	0.0812331289
1262.43473	0.0820487961
1261.00501	0.0829603598
1259.57530	0.0839437544
1258.14559	0.0849602222
1256.71588	0.0859626457
1255.28617	0.0869039446
1253.85646	0.0877458602
1252.42675	0.0884634480
1250.99704	0.0890434310
1249.56733	0.0894783512
1248.13762	0.0897599757
1246.70791	0.0898781121
1245.27819	0.0898278728
1243.84848	0.0896170288
1242.41877	0.0892685279
1240.98906	0.0888147280
1239.55935	0.0882865340
1238.12964	0.0877053738
1236.69993	0.0870810822
1235.27022	0.0864159316
1233.84051	0.0857115015
1232.41080	0.0849745795
1230.98109	0.0842169747
1229.55137	0.0834524706
1228.12166	0.0826916546
1226.69195	0.0819383934
1225.26224	0.0811899975
1223.83253	0.0804393366
1222.40282	0.0796783939
1220.97311	0.0789012834
1219.54340	0.0781080127
1218.11369	0.0773049966
1216.68398	0.0765043944
1215.25427	0.0757202953
1213.82455	0.0749666542
1212.39484	0.0742552504
1210.96513	0.0735958591
1209.53542	0.0729963779
1208.10571	0.0724633634
1206.67600	0.0720027313
1205.24629	0.0716202408
1203.81658	0.0713220611
1202.38687	0.0711135417
1200.95716	0.0709978715
1199.52745	0.0709784552
1198.09774	0.0710589364
1196.66802	0.0712429360
1195.23831	0.0715307146
1193.80860	0.0719150156
1192.37889	0.0723798648
1190.94918	0.0729034767
1189.51947	0.0734626949
1188.08976	0.0740382895
1186.66005	0.0746203363
1185.23034	0.0752132908
1183.80063	0.0758375973
1182.37092	0.0765253529
1180.94120	0.0773072541
1179.51149	0.0781975463
1178.08178	0.0791847333
1176.65207	0.0802354217
1175.22236	0.0813101009
1173.79265	0.0823794976
1172.36294	0.0834342465
1170.93323	0.0844822526
1169.50352	0.0855390728
1168.07381	0.0866180584
1166.64410	0.0877266675
1165.21438	0.0888665020
1163.78467	0.0900375545
1162.35496	0.0912390798
1160.92525	0.0924680531
1159.49554	0.0937171876
1158.06583	0.0949739143
1156.63612	0.0962208509
1155.20641	0.0974385664
1153.77670	0.0986105129
1152.34699	0.0997277200
1150.91728	0.1007935181
1149.48756	0.1018230841
1148.05785	0.1028409973
1146.62814	0.1038758680
1145.19843	0.1049572080
1143.76872	0.1061130986
1142.33901	0.1073662564
1140.90930	0.1087300032
1139.47959	0.1102061197
1138.04988	0.1117885262
1136.62017	0.1134691462
1135.19046	0.1152418181
1133.76074	0.1170995384
1132.33103	0.1190284342
1130.90132	0.1210081726
1129.47161	0.1230157688
1128.04190	0.1250330806
1126.61219	0.1270490736
1125.18248	0.1290569454
1123.75277	0.1310495734
1122.32306	0.1330173910
1120.89335	0.1349494308
1119.46364	0.1368367225
1118.03392	0.1386763901
1116.60421	0.1404730529
1115.17450	0.1422368735
1113.74479	0.1439761221
1112.31508	0.1456875652
1110.88537	0.1473540217
1109.45566	0.1489482522
1108.02595	0.1504428536
1106.59624	0.1518155932
1105.16653	0.1530489028
1103.73682	0.1541277021
1102.30710	0.1550411135
1100.87739	0.1557898372
1099.44768	0.1563928872
1098.01797	0.1568861455
1096.58826	0.1573125571
1095.15855	0.1577075422
1093.72884	0.1580884010
1092.29913	0.1584492922
1090.86942	0.1587631106
1089.43971	0.1589872092
1088.01000	0.1590723395
1086.58028	0.1589740813
1085.15057	0.1586642563
1083.72086	0.1581355929
1082.29115	0.1573985815
1080.86144	0.1564704478
1079.43173	0.1553657651
1078.00202	0.1540941596
1076.57231	0.1526654959
1075.14260	0.1510981619
1073.71289	0.1494213939
1072.28318	0.1476730853
1070.85346	0.1458926648
1069.42375	0.1441131830
1067.99404	0.1423543841
1066.56433	0.1406155974
1065.13462	0.1388739347
1063.70491	0.1370887309
1062.27520	0.1352151185
1060.84549	0.1332199425
1059.41578	0.1310908794
1057.98607	0.1288356781
1056.55636	0.1264726520
1055.12664	0.1240235120
1053.69693	0.1215121150
1052.26722	0.1189690605
1050.83751	0.1164309904
1049.40780	0.1139333844
1047.97809	0.1115006804
1046.54838	0.1091429666
1045.11867	0.1068624631
1043.68896	0.1046671048
1042.25925	0.1025766283
1040.82954	0.1006177068
1039.39983	0.0988112465
1037.97011	0.0971603319
1036.54040	0.0956499279
1035.11069	0.0942526758
1033.68098	0.0929365903
1032.25127	0.0916680247
1030.82156	0.0904143676
1029.39185	0.0891507864
1027.96214	0.0878695026
1026.53243	0.0865846947
1025.10272	0.0853261352
1023.67301	0.0841260999
1022.24329	0.0830084607
1020.81358	0.0819893256
1019.38387	0.0810850933
1017.95416	0.0803185701
1016.52445	0.0797183290
1015.09474	0.0793097839
1013.66503	0.0791062117
1012.23532	0.0791041926
1010.80561	0.0792874098
1009.37590	0.0796362907
1007.94619	0.0801368803
1006.51647	0.0807837471
1005.08676	0.0815740451
1003.65705	0.0824983269
1002.22734	0.0835344195
1000.79763	0.0846481547
999.36792	0.0857985690
997.93821	0.0869415104
996.50850	0.0880303010
995.07879	0.0890155956
993.64908	0.0898471028
992.21937	0.0904789865
990.78965	0.0908763185
989.35994	0.0910208076
987.93023	0.0909135342
986.50052	0.0905735567
985.07081	0.0900314078
983.64110	0.0893209279
982.21139	0.0884714797
980.78168	0.0875029638
979.35197	0.0864248425
977.92226	0.0852390975
976.49255	0.0839478672
975.06283	0.0825640634
973.63312	0.0811164826
972.20341	0.0796457157
970.77370	0.0781912878
969.34399	0.0767784715
967.91428	0.0754173175
966.48457	0.0741111115
965.05486	0.0728674382
963.62515	0.0717007816
962.19544	0.0706263781
960.76573	0.0696545392
959.33601	0.0687899217
957.90630	0.0680343285
956.47659	0.0673889294
955.04688	0.0668527186
953.61717	0.0664206520
952.18746	0.0660842434
950.75775	0.0658332482
949.32804	0.0656554997
947.89833	0.0655368194
946.46862	0.0654610023
945.03891	0.0654123351
943.60919	0.0653794706
942.17948	0.0653553382
940.74977	0.0653339475
939.32006	0.0653061196
937.89035	0.0652570203
936.46064	0.0651679486
935.03093	0.0650236681
933.60122	0.0648190230
932.17151	0.0645638257
930.74180	0.0642809272
929.31209	0.0639981553
927.88237	0.0637369975
926.45266	0.0635050014
925.02295	0.0632952601
923.59324	0.0630928352
922.16353	0.0628837943
920.73382	0.0626605079
919.30411	0.0624218546
917.87440	0.0621692874
916.44469	0.0619013496
915.01498	0.0616093799
913.58527	0.0612801649
912.15555	0.0609036945
910.72584	0.0604870841
909.29613	0.0600618906
907.86642	0.0596791394
906.43671	0.0593896993
905.00700	0.0592220724
903.57729	0.0591743402
902.14758	0.0592250116
900.71787	0.0593520068
899.28816	0.0595444441
897.85845	0.0597995855
896.42873	0.0601153113
894.99902	0.0604862794
893.56931	0.0609083101
892.13960	0.0613789335
890.70989	0.0618929304
889.28018	0.0624353625
887.85047	0.0629843101
886.42076	0.0635216311
884.99105	0.0640409291
883.56134	0.0645446330
882.13163	0.0650321469
880.70192	0.0654915795
879.27220	0.0659042224
877.84249	0.0662582219
876.41278	0.0665586144
874.98307	0.0668262690
873.55336	0.0670880824
872.12365	0.0673641711
870.69394	0.0676588267
869.26423	0.0679583773
867.83452	0.0682330132
866.40481	0.0684442520
864.97510	0.0685565397
863.54538	0.0685489923
862.11567	0.0684213117
860.68596	0.0681934580
859.25625	0.0678954422
857.82654	0.0675545707
856.39683	0.0671847388
854.96712	0.0667827651
853.53741	0.0663354173
852.10770	0.0658309013
850.67799	0.0652726293
849.24828	0.0646829903
847.81856	0.0640984401
846.38885	0.0635540187
844.95914	0.0630689785
843.52943	0.0626400858
842.09972	0.0622462705
840.67001	0.0618631393
839.24030	0.0614760257
837.81059	0.0610872880
836.38088	0.0607104786
834.95117	0.0603570752
833.52146	0.0600238740
832.09174	0.0596910194
830.66203	0.0593307912
829.23232	0.0589232706
827.80261	0.0584672354
826.37290	0.0579817705
824.94319	0.0574986786
823.51348	0.0570527241
822.08377	0.0566734709
820.65406	0.0563779511
819.22435	0.0561658181
817.79464	0.0560197197
816.36492	0.0559135079
814.93521	0.0558241270
813.50550	0.0557405949
812.07579	0.0556614920
810.64608	0.0555873439
809.21637	0.0555155948
807.78666	0.0554432683
806.35695	0.0553699508
804.92724	0.0552987941
803.49753	0.0552320890
802.06782	0.0551689491
800.63810	0.0551081710
799.20839	0.0550530143
797.77868	0.0550124049
796.34897	0.0549953654
794.91926	0.0550066754
793.48955	0.0550439917
792.05984	0.0551021472
790.63013	0.0551782958
789.20042	0.0552765094
787.77071	0.0554055050
786.34100	0.0555691645
784.91128	0.0557556339
783.48157	0.0559334420
782.05186	0.0560631901
780.62215	0.0561185367
779.19244	0.0561022162
777.76273	0.0560439564
776.33302	0.0559829995
774.90331	0.0559476912
773.47360	0.0559489876
772.04389	0.0559845008
770.61418	0.0560460798
769.18446	0.0561240166
767.75475	0.0562074445
766.32504	0.0562877096
764.89533	0.0563625358
763.46562	0.0564361662
762.03591	0.0565139651
760.60620	0.0565948151
759.17649	0.0566716120
757.74678	0.0567374192
756.31707	0.0567952096
754.88736	0.0568581149
753.45764	0.0569428056
752.02793	0.0570599586
750.59822	0.0572067574
749.16851	0.0573675521
747.73880	0.0575165264
746.30909	0.0576233976
744.87938	0.0576619171
743.44967	0.0576205030
742.01996	0.0575119182
740.59025	0.0573762096
739.16054	0.0572704598
737.73082	0.0572496988
736.30111	0.0573455766
734.87140	0.0575571321
733.44169	0.0578570962
732.01198	0.0582110137
730.58227	0.0585959964
729.15256	0.0590058491
727.72285	0.0594384633
726.29314	0.0598784946
724.86343	0.0602932759
723.43372	0.0606498085
722.00401	0.0609406568
720.57429	0.0611932538
719.14458	0.0614523180
717.71487	0.0617491640
716.28516	0.0620838404
714.85545	0.0624344945
713.42574	0.0627762228
711.99603	0.0630947798
710.56632	0.0633864924
709.13661	0.0636557341
707.70690	0.0639131218
706.27719	0.0641712099
704.84747	0.0644341856
703.41776	0.0646870807
701.98805	0.0648973733
700.55834	0.0650308803
699.12863	0.0650712624
697.69892	0.0650270954
696.26921	0.0649205521
694.83950	0.0647707283
693.40979	0.0645853058
691.98008	0.0643713474
690.55037	0.0641523600
689.12065	0.0639735013
687.69094	0.0638825968
686.26123	0.0638981313
684.83152	0.0639900863
683.40181	0.0640958324
681.97210	0.0641625673
680.54239	0.0641833618
679.11268	0.0641974956
677.68297	0.0642553568
676.25326	0.0643783137
674.82355	0.0645481199
673.39383	0.0647264048
671.96412	0.0648766682
670.53441	0.0649699122
669.10470	0.0649847910
667.67499	0.0649183840
666.24528	0.0647968426
664.81557	0.0646587759
663.38586	0.0645342767
661.95615	0.0644457489
660.52644	0.0644159317
659.09673	0.0644618124
657.66701	0.0645775497
656.23730	0.0647258982
654.80759	0.0648550540
653.37788	0.0649274662
651.94817	0.0649375021
650.51846	0.0649082586
649.08875	0.0648745894
647.65904	0.0648634732
646.22933	0.0648806319
644.79962	0.0649074465
643.36991	0.0649131238
641.94019	0.0648767874
640.51048	0.0648063943
639.08077	0.0647348836
637.65106	0.0646901727
636.22135	0.0646601021
634.79164	0.0645820275
633.36193	0.0643723384
631.93222	0.0639734119
630.50251	0.0633846000
629.07280	0.0626605377
627.64309	0.0618868731
626.21337	0.0611520372
624.78366	0.0605267771
623.35395	0.0600546673
621.92424	0.0597495027
620.49453	0.0595941469
619.06482	0.0595347360
617.63511	0.0594855733
616.20540	0.0593637601
614.77569	0.0591388904
613.34598	0.0588563047
611.91627	0.0586057454
610.48655	0.0584554784
609.05684	0.0584064685
607.62713	0.0584020279
606.19742	0.0583822168
604.76771	0.0583328009
603.33800	0.0582961775
601.90829	0.0583506525
600.47858	0.0585702248
599.04887	0.0589847341
