3997.47168	0.0668326095
3996.04197	0.0668033287
3994.61226	0.0667576492
3993.18255	0.0667150617
3991.75284	0.0666957423
3990.32312	0.0667136684
3988.89341	0.0667691231
3987.46370	0.0668467134
3986.03399	0.0669206604
3984.60428	0.0669681653
3983.17457	0.0669824556
3981.74486	0.0669762045
3980.31515	0.0669726655
3978.88544	0.0669891909
3977.45573	0.0670260042
3976.02602	0.0670667291
3974.59630	0.0670911968
3973.16659	0.0670892969
3971.73688	0.0670634955
3970.30717	0.0670228079
3968.87746	0.0669740289
3967.44775	0.0669187903
3966.01804	0.0668589994
3964.58833	0.0668015480
3963.15862	0.0667590126
3961.72891	0.0667438880
3960.29920	0.0667620599
3958.86948	0.0668087304
3957.43977	0.0668698996
3956.01006	0.0669266731
3954.58035	0.0669625774
3953.15064	0.0669677779
3951.72093	0.0669412911
3950.29122	0.0668910667
3948.86151	0.0668324009
3947.43180	0.0667847618
3946.00209	0.0667651668
3944.57238	0.0667848513
3943.14266	0.0668458045
3941.71295	0.0669425577
3940.28324	0.0670613796
3938.85353	0.0671823844
3937.42382	0.0672784224
3935.99411	0.0673210397
3934.56440	0.0672935322
3933.13469	0.0672033206
3931.70498	0.0670865178
3930.27527	0.0669865906
3928.84556	0.0669282451
3927.41585	0.0669075251
3925.98613	0.0669044182
3924.55642	0.0669003427
3923.12671	0.0668858737
3921.69700	0.0668605715
3920.26729	0.0668295324
3918.83758	0.0668052286
3917.40787	0.0668066517
3915.97816	0.0668515414
3914.54845	0.0669429526
3913.11874	0.0670635849
3911.68903	0.0671821088
3910.25931	0.0672637597
3908.82960	0.0672815070
3907.39989	0.0672196969
3905.97018	0.0670798719
3904.54047	0.0668869019
3903.11076	0.0666945651
3901.68105	0.0665720105
3900.25134	0.0665644333
3898.82163	0.0666635707
3897.39192	0.0668185130
3895.96221	0.0669695884
3894.53249	0.0670730695
3893.10278	0.0671144575
3891.67307	0.0671080574
3890.24336	0.0670821667
3888.81365	0.0670521706
3887.38394	0.0670073107
3885.95423	0.0669278800
3884.52452	0.0668138340
3883.09481	0.0667023808
3881.66510	0.0666491091
3880.23539	0.0666860268
3878.80567	0.0667967424
3877.37596	0.0669273064
3875.94625	0.0670178831
3874.51654	0.0670286641
3873.08683	0.0669534877
3871.65712	0.0668221340
3870.22741	0.0666867495
3868.79770	0.0665920451
3867.36799	0.0665566251
3865.93828	0.0665785894
3864.50857	0.0666535795
3863.07885	0.0667774230
3861.64914	0.0669333786
3860.21943	0.0670839474
3858.78972	0.0671729520
3857.36001	0.0671379343
3855.93030	0.0669434667
3854.50059	0.0666522533
3853.07088	0.0664604679
3851.64117	0.0665441602
3850.21146	0.0668746158
3848.78175	0.0672894195
3847.35203	0.0676440075
3845.92232	0.0678555593
3844.49261	0.0678953230
3843.06290	0.0677805990
3841.63319	0.0675688758
3840.20348	0.0673418343
3838.77377	0.0671735853
3837.34406	0.0671018288
3835.91435	0.0671209246
3834.48464	0.0672022030
3833.05493	0.0673192516
3831.62521	0.0674539953
3830.19550	0.0675878972
3828.76579	0.0676965490
3827.33608	0.0677524880
3825.90637	0.0677356720
3824.47666	0.0676460043
3823.04695	0.0675077289
3821.61724	0.0673688278
3820.18753	0.0672823191
3818.75782	0.0672817156
3817.32811	0.0673685223
3815.89839	0.0675190687
3814.46868	0.0676984265
3813.03897	0.0678703859
3811.60926	0.0680021197
3810.17955	0.0680680275
3808.74984	0.0680568591
3807.32013	0.0679777488
3805.89042	0.0678604618
3804.46071	0.0677418411
3803.03100	0.0676512346
3801.60129	0.0676082224
3800.17157	0.0676275790
3798.74186	0.0677174851
3797.31215	0.0678729862
3795.88244	0.0680765957
3794.45273	0.0683075041
3793.02302	0.0685435086
3791.59331	0.0687598661
3790.16360	0.0689280555
3788.73389	0.0690265447
3787.30418	0.0690557435
3785.87447	0.0690424219
3784.44475	0.0690220296
3783.01504	0.0690132603
3781.58533	0.0690096766
3780.15562	0.0690003633
3778.72591	0.0689908043
3777.29620	0.0689995736
3775.86649	0.0690352544
3774.43678	0.0690836906
3773.00707	0.0691196248
3771.57736	0.0691269115
3770.14765	0.0691118836
3768.71794	0.0691004470
3767.28822	0.0691168010
3765.85851	0.0691629127
3764.42880	0.0692170635
3762.99909	0.0692506731
3761.56938	0.0692478791
3760.13967	0.0692169741
3758.70996	0.0691806078
3757.28025	0.0691457912
3755.85054	0.0690865740
3754.42083	0.0689595789
3752.99112	0.0687518567
3751.56140	0.0685184076
3750.13169	0.0683631897
3748.70198	0.0683574975
3747.27227	0.0684937984
3745.84256	0.0687302649
3744.41285	0.0690404773
3742.98314	0.0694041774
3741.55343	0.0697749630
3740.12372	0.0700801387
3738.69401	0.0702457130
3737.26430	0.0702278167
3735.83458	0.0700555593
3734.40487	0.0698541552
3732.97516	0.0697731376
3731.54545	0.0698663443
3730.11574	0.0700784028
3728.68603	0.0703182891
3727.25632	0.0705190003
3725.82661	0.0706588477
3724.39690	0.0707580373
3722.96719	0.0708561465
3721.53748	0.0709787905
3720.10776	0.0711230859
3718.67805	0.0712669715
3717.24834	0.0713833869
3715.81863	0.0714465156
3714.38892	0.0714438334
3712.95921	0.0713997409
3711.52950	0.0713933930
3710.09979	0.0715151206
3708.67008	0.0717816949
3707.24037	0.0721220896
3705.81066	0.0724480376
3704.38094	0.0727122501
3702.95123	0.0729224905
3701.52152	0.0731237605
3700.09181	0.0733631626
3698.66210	0.0736581162
3697.23239	0.0739886835
3695.80268	0.0743166208
3694.37297	0.0746049955
3692.94326	0.0748311654
3691.51355	0.0749973208
3690.08384	0.0751374811
3688.65412	0.0753092766
3687.22441	0.0755601078
3685.79470	0.0758987889
3684.36499	0.0762994513
3682.93528	0.0767170340
3681.50557	0.0771034509
3680.07586	0.0774276480
3678.64615	0.0776977912
3677.21644	0.0779722258
3675.78673	0.0783302486
3674.35702	0.0788145587
3672.92730	0.0794113427
3671.49759	0.0800915211
3670.06788	0.0808431730
3668.63817	0.0816631988
3667.20846	0.0825390220
3665.77875	0.0834499300
3664.34904	0.0843739733
3662.91933	0.0852851495
3661.48962	0.0861523151
3660.05991	0.0869527385
3658.63020	0.0876935571
3657.20048	0.0884151831
3655.77077	0.0891619399
3654.34106	0.0899514109
3652.91135	0.0907779485
3651.48164	0.0916495100
3650.05193	0.0926081017
3648.62222	0.0936932862
3647.19251	0.0948820561
3645.76280	0.0961058587
3644.33309	0.0973178372
3642.90338	0.0985104367
3641.47366	0.0996930748
3640.04395	0.1008732542
3638.61424	0.1020538285
3637.18453	0.1032293886
3635.75482	0.1043825224
3634.32511	0.1054938734
3632.89540	0.1065721735
3631.46569	0.1076819897
3630.03598	0.1089249924
3628.60627	0.1103474423
3627.17656	0.1118674204
3625.74684	0.1133471727
3624.31713	0.1147112176
3622.88742	0.1159654036
3621.45771	0.1171527281
3620.02800	0.1183201298
3618.59829	0.1195042133
3617.16858	0.1207211986
3615.73887	0.1219628900
3614.30916	0.1232098565
3612.87945	0.1244564578
3611.44974	0.1257219166
3610.02003	0.1270314157
3608.59031	0.1283839792
3607.16060	0.1297457963
3605.73089	0.1310779005
3604.30118	0.1323649734
3602.87147	0.1336102784
3601.44176	0.1348198354
3600.01205	0.1359987706
3598.58234	0.1371624917
3597.15263	0.1383362561
3595.72292	0.1395353228
3594.29321	0.1407505870
3592.86349	0.1419630945
3591.43378	0.1431721598
3590.00407	0.1443992257
3588.57436	0.1456613541
3587.14465	0.1469431520
3585.71494	0.1482048482
3584.28523	0.1494177729
3582.85552	0.1505821794
3581.42581	0.1517137438
3579.99610	0.1528314799
3578.56639	0.1539590359
3577.13667	0.1551212370
3575.70696	0.1563265175
3574.27725	0.1575524062
3572.84754	0.1587574333
3571.41783	0.1599116176
3569.98812	0.1610195488
3568.55841	0.1621212512
3567.12870	0.1632699370
3565.69899	0.1645001620
3564.26928	0.1658046097
3562.83957	0.1671426445
3561.40985	0.1684627831
3559.98014	0.1697261035
3558.55043	0.1709207743
3557.12072	0.1720631123
3555.69101	0.1731813848
3554.26130	0.1742963195
3552.83159	0.1754157245
3551.40188	0.1765419394
3549.97217	0.1776768416
3548.54246	0.1788173020
3547.11275	0.1799559146
3545.68303	0.1810911447
3544.25332	0.1822347194
3542.82361	0.1834011227
3541.39390	0.1845877022
3539.96419	0.1857751459
3538.53448	0.1869440675
3537.10477	0.1880883723
3535.67506	0.1892122775
3534.24535	0.1903181076
3532.81564	0.1914052963
3531.38593	0.1924788356
3529.95621	0.1935493350
3528.52650	0.1946219802
3527.09679	0.1956903189
3525.66708	0.1967484951
3524.23737	0.1978079081
3522.80766	0.1988896281
3521.37795	0.2000015825
3519.94824	0.2011289895
3518.51853	0.2022490799
3517.08882	0.2033506334
3515.65911	0.2044332176
3514.22939	0.2054958194
3512.79968	0.2065356225
3511.36997	0.2075574994
3509.94026	0.2085779011
3508.51055	0.2096081227
3507.08084	0.2106382847
3505.65113	0.2116427720
3504.22142	0.2126057148
3502.79171	0.2135346532
3501.36200	0.2144514024
3499.93229	0.2153740227
3498.50257	0.2163102627
3497.07286	0.2172628194
3495.64315	0.2182292044
3494.21344	0.2191974074
3492.78373	0.2201498449
3491.35402	0.2210745215
3489.92431	0.2219727039
3488.49460	0.2228506356
3487.06489	0.2237095088
3485.63518	0.2245466858
3484.20547	0.2253656536
3482.77575	0.2261771411
3481.34604	0.2269907147
3479.91633	0.2278076857
3478.48662	0.2286303341
3477.05691	0.2294678837
3475.62720	0.2303279936
3474.19749	0.2312010527
3472.76778	0.2320588082
3471.33807	0.2328734845
3469.90836	0.2336357832
3468.47865	0.2343540043
3467.04893	0.2350402623
3465.61922	0.2357049435
3464.18951	0.2363599837
3462.75980	0.2370197624
3461.33009	0.2376901656
3459.90038	0.2383619696
3458.47067	0.2390210330
3457.04096	0.2396612167
3455.61125	0.2402866930
3454.18154	0.2409002334
3452.75183	0.2414973378
3451.32212	0.2420764118
3449.89240	0.2426483929
3448.46269	0.2432302386
3447.03298	0.2438305169
3445.60327	0.2444427162
3444.17356	0.2450585514
3442.74385	0.2456759810
3441.31414	0.2462933511
3439.88443	0.2468989789
3438.45472	0.2474750578
3437.02501	0.2480120361
3435.59530	0.2485157698
3434.16558	0.2489989251
3432.73587	0.2494706661
3431.30616	0.2499338090
3429.87645	0.2503906488
3428.44674	0.2508421838
3427.01703	0.2512825131
3425.58732	0.2517017424
3424.15761	0.2520958781
3422.72790	0.2524732053
3421.29819	0.2528477609
3419.86848	0.2532259226
3418.43876	0.2536046505
3417.00905	0.2539794147
3415.57934	0.2543480098
3414.14963	0.2547074258
3412.71992	0.2550514042
3411.29021	0.2553762496
3409.86050	0.2556895614
3408.43079	0.2560051382
3407.00108	0.2563270032
3405.57137	0.2566423416
3404.14166	0.2569319010
3402.71194	0.2571902275
3401.28223	0.2574317455
3399.85252	0.2576795220
3398.42281	0.2579491138
3396.99310	0.2582390308
3395.56339	0.2585330009
3394.13368	0.2588087618
3392.70397	0.2590508759
3391.27426	0.2592612207
3389.84455	0.2594594657
3388.41484	0.2596684992
3386.98512	0.2598988712
3385.55541	0.2601423264
3384.12570	0.2603817582
3382.69599	0.2606040239
3381.26628	0.2608034015
3379.83657	0.2609806359
3378.40686	0.2611444890
3376.97715	0.2613165975
3375.54744	0.2615262270
3374.11773	0.2617918253
3372.68802	0.2621020377
3371.25830	0.2624195814
3369.82859	0.2627041042
3368.39888	0.2629352808
3366.96917	0.2631197572
3365.53946	0.2632781565
3364.10975	0.2634300590
3362.68004	0.2635840476
3361.25033	0.2637387216
3359.82062	0.2638909519
3358.39091	0.2640432119
3356.96120	0.2642045617
3355.53148	0.2643796504
3354.10177	0.2645563781
3352.67206	0.2647099495
3351.24235	0.2648234367
3349.81264	0.2649089694
3348.38293	0.2650075257
3346.95322	0.2651621997
3345.52351	0.2653883994
3344.09380	0.2656655312
3342.66409	0.2659523487
3341.23438	0.2662096620
3339.80466	0.2664133608
3338.37495	0.2665587664
3336.94524	0.2666621804
3335.51553	0.2667587101
3334.08582	0.2668910623
3332.65611	0.2670929432
3331.22640	0.2673738003
3329.79669	0.2677172720
3328.36698	0.2680888474
3326.93727	0.2684493959
3325.50756	0.2687700689
3324.07784	0.2690432072
3322.64813	0.2692847252
3321.21842	0.2695217431
3319.78871	0.2697766721
3318.35900	0.2700607181
3316.92929	0.2703804970
3315.49958	0.2707498372
3314.06987	0.2711859047
3312.64016	0.2716909051
3311.21045	0.2722362280
3309.78074	0.2727658153
3308.35102	0.2732204795
3306.92131	0.2735658884
3305.49160	0.2738071084
3304.06189	0.2739853561
3302.63218	0.2741600871
3301.20247	0.2743839622
3299.77276	0.2746768892
3298.34305	0.2750149071
3296.91334	0.2753393948
3295.48363	0.2755838931
3294.05392	0.2757005095
3292.62421	0.2756744921
3291.19449	0.2755239606
3289.76478	0.2752882540
3288.33507	0.2750131190
3286.90536	0.2747347653
3285.47565	0.2744692862
3284.04594	0.2742113769
3282.61623	0.2739433944
3281.18652	0.2736459076
3279.75681	0.2733040154
3278.32710	0.2729048133
3276.89739	0.2724340260
3275.46767	0.2718753219
3274.03796	0.2712140083
3272.60825	0.2704438865
3271.17854	0.2695706189
3269.74883	0.2686131001
3268.31912	0.2675997615
3266.88941	0.2665612996
3265.45970	0.2655227184
3264.02999	0.2645006776
3262.60028	0.2635039091
3261.17057	0.2625350654
3259.74085	0.2615880072
3258.31114	0.2606449127
3256.88143	0.2596833706
3255.45172	0.2586917877
3254.02201	0.2576840520
3252.59230	0.2566950619
3251.16259	0.2557604313
3249.73288	0.2548935115
3248.30317	0.2540777028
3246.87346	0.2532803714
3245.44375	0.2524740994
3244.01403	0.2516542673
3242.58432	0.2508410811
3241.15461	0.2500678003
3239.72490	0.2493609339
3238.29519	0.2487244606
3236.86548	0.2481340319
3235.43577	0.2475464493
3234.00606	0.2469217777
3232.57635	0.2462417781
3231.14664	0.2455185503
3229.71693	0.2447880208
3228.28721	0.2440918237
3226.85750	0.2434585243
3225.42779	0.2428911030
3223.99808	0.2423689663
3222.56837	0.2418637127
3221.13866	0.2413559407
3219.70895	0.2408415377
3218.27924	0.2403231114
3216.84953	0.2397962213
3215.41982	0.2392490506
3213.99011	0.2386735976
3212.56039	0.2380782068
3211.13068	0.2374857664
3209.70097	0.2369159907
3208.27126	0.2363695353
3206.84155	0.2358264774
3205.41184	0.2352585495
3203.98213	0.2346468121
3202.55242	0.2339901328
3201.12271	0.2333044559
3199.69300	0.2326149493
3198.26329	0.2319436818
3196.83357	0.2312992364
3195.40386	0.2306759953
3193.97415	0.2300613374
3192.54444	0.2294465005
3191.11473	0.2288289368
3189.68502	0.2282062471
3188.25531	0.2275708616
3186.82560	0.2269140631
3185.39589	0.2262350470
3183.96618	0.2255449295
3182.53647	0.2248577625
3181.10675	0.2241781503
3179.67704	0.2234964371
3178.24733	0.2227970213
3176.81762	0.2220705897
3175.38791	0.2213198990
3173.95820	0.2205578685
3172.52849	0.2198002040
3171.09878	0.2190605551
3169.66907	0.2183459848
3168.23936	0.2176534832
3166.80965	0.2169709206
3165.37993	0.2162821442
3163.95022	0.2155760527
3162.52051	0.2148533911
3161.09080	0.2141260356
3159.66109	0.2134111673
3158.23138	0.2127237022
3156.80167	0.2120683640
3155.37196	0.2114391178
3153.94225	0.2108206600
3152.51254	0.2101940215
3151.08283	0.2095452547
3149.65311	0.2088704109
3148.22340	0.2081777155
3146.79369	0.2074839473
3145.36398	0.2068064213
3143.93427	0.2061537355
3142.50456	0.2055214047
3141.07485	0.2048936039
3139.64514	0.2042525858
3138.21543	0.2035906166
3136.78572	0.2029141635
3135.35601	0.2022405565
3133.92629	0.2015857249
3132.49658	0.2009549886
3131.06687	0.2003422379
3129.63716	0.1997382343
3128.20745	0.1991412938
3126.77774	0.1985599697
3125.34803	0.1980057657
3123.91832	0.1974826902
3122.48861	0.1969819218
3121.05890	0.1964855939
3119.62919	0.1959772408
3118.19948	0.1954501420
3116.76976	0.1949111670
3115.34005	0.1943760961
3113.91034	0.1938601136
3112.48063	0.1933696568
3111.05092	0.1928970963
3109.62121	0.1924271733
3108.19150	0.1919492036
3106.76179	0.1914657950
3105.33208	0.1909886599
3103.90237	0.1905244291
3102.47266	0.1900646985
3101.04294	0.1895930320
3099.61323	0.1891039163
3098.18352	0.1886133850
3096.75381	0.1881519556
3095.32410	0.1877422333
3093.89439	0.1873825341
3092.46468	0.1870510578
3091.03497	0.1867216974
3089.60526	0.1863795072
3088.17555	0.1860218942
3086.74584	0.1856520027
3085.31612	0.1852721423
3083.88641	0.1848801374
3082.45670	0.1844700724
3081.02699	0.1840332747
3079.59728	0.1835611612
3078.16757	0.1830506921
3076.73786	0.1825107187
3075.30815	0.1819627136
3073.87844	0.1814343035
3072.44873	0.1809451729
3071.01902	0.1804932654
3069.58930	0.1800515056
3068.15959	0.1795804501
3066.72988	0.1790505648
3065.30017	0.1784611046
3063.87046	0.1778399348
3062.44075	0.1772245169
3061.01104	0.1766379178
3059.58133	0.1760785431
3058.15162	0.1755279303
3056.72191	0.1749654561
3055.29220	0.1743803173
3053.86248	0.1737718731
3052.43277	0.1731460243
3051.00306	0.1725138724
3049.57335	0.1718887687
3048.14364	0.1712811440
3046.71393	0.1706907749
3045.28422	0.1701026261
3043.85451	0.1694953144
3042.42480	0.1688562781
3040.99509	0.1681937277
3039.56538	0.1675347090
3038.13566	0.1669075936
3036.70595	0.1663234383
3035.27624	0.1657696515
3033.84653	0.1652199775
3032.41682	0.1646533310
3030.98711	0.1640652567
3029.55740	0.1634648144
3028.12769	0.1628616601
3026.69798	0.1622576565
3025.26827	0.1616492271
3023.83856	0.1610376984
3022.40884	0.1604362279
3020.97913	0.1598670334
3019.54942	0.1593499780
3018.11971	0.1588906497
3016.69000	0.1584748030
3015.26029	0.1580729783
3013.83058	0.1576526463
3012.40087	0.1571926922
3010.97116	0.1566917151
3009.54145	0.1561674476
3008.11174	0.1556474566
3006.68202	0.1551580131
3005.25231	0.1547178477
3003.82260	0.1543380171
3002.39289	0.1540241688
3000.96318	0.1537766159
2999.53347	0.1535875797
2998.10376	0.1534407586
2996.67405	0.1533159465
2995.24434	0.1531979889
2993.81463	0.1530836225
2992.38492	0.1529825181
2990.95520	0.1529116929
2989.52549	0.1528887600
2988.09578	0.1529273391
2986.66607	0.1530353129
2985.23636	0.1532133073
2983.80665	0.1534522176
2982.37694	0.1537350118
2980.94723	0.1540418565
2979.51752	0.1543577462
2978.08781	0.1546776742
2976.65810	0.1550038904
2975.22838	0.1553407311
2973.79867	0.1556883156
2972.36896	0.1560421884
2970.93925	0.1563956738
2969.50954	0.1567405760
2968.07983	0.1570658684
2966.65012	0.1573560685
2965.22041	0.1575900167
2963.79070	0.1577437669
2962.36099	0.1577952504
2960.93128	0.1577276438
2959.50157	0.1575339139
2958.07185	0.1572157741
2956.64214	0.1567815095
2955.21243	0.1562435180
2953.78272	0.1556206793
2952.35301	0.1549454629
2950.92330	0.1542665660
2949.49359	0.1536418945
2948.06388	0.1531218588
2946.63417	0.1527333707
2945.20446	0.1524755210
2943.77475	0.1523298025
2942.34503	0.1522734463
2940.91532	0.1522887796
2939.48561	0.1523616761
2938.05590	0.1524766237
2936.62619	0.1526141018
2935.19648	0.1527502984
2933.76677	0.1528591216
2932.33706	0.1529131234
2930.90735	0.1528855860
2929.47764	0.1527574360
2928.04793	0.1525241286
2926.61821	0.1522007585
2925.18850	0.1518146694
2923.75879	0.1513885111
2922.32908	0.1509232670
2920.89937	0.1503939629
2919.46966	0.1497634649
2918.03995	0.1490041465
2916.61024	0.1481132358
2915.18053	0.1471145898
2913.75082	0.1460493505
2912.32111	0.1449654996
2910.89139	0.1439088732
2909.46168	0.1429155916
2908.03197	0.1420044452
2906.60226	0.1411755979
2905.17255	0.1404169053
2903.74284	0.1397164613
2902.31313	0.1390711814
2900.88342	0.1384831071
2899.45371	0.1379491389
2898.02400	0.1374541223
2896.59429	0.1369760931
2895.16457	0.1365004629
2893.73486	0.1360293329
2892.30515	0.1355808377
2890.87544	0.1351802349
2889.44573	0.1348482966
2888.01602	0.1345963925
2886.58631	0.1344240904
2885.15660	0.1343197227
2883.72689	0.1342640370
2882.29718	0.1342348009
2880.86747	0.1342147440
2879.43775	0.1341937333
2878.00804	0.1341636479
2876.57833	0.1341089457
2875.14862	0.1340014786
2873.71891	0.1338057071
2872.28920	0.1334942132
2870.85949	0.1330606043
2869.42978	0.1325250417
2868.00007	0.1319271326
2866.57036	0.1313141137
2865.14065	0.1307306439
2863.71093	0.1302111000
2862.28122	0.1297736764
2860.85151	0.1294168234
2859.42180	0.1291190088
2857.99209	0.1288456023
2856.56238	0.1285583526
2855.13267	0.1282227635
2853.70296	0.1278098524
2852.27325	0.1272962242
2850.84354	0.1266658604
2849.41383	0.1259177774
2847.98411	0.1250740588
2846.55440	0.1241807640
2845.12469	0.1232982874
2843.69498	0.1224821508
2842.26527	0.1217641532
2840.83556	0.1211453155
2839.40585	0.1206030175
2837.97614	0.1201091409
2836.54643	0.1196452081
2835.11672	0.1192074940
2833.68701	0.1188002378
2832.25729	0.1184257939
2830.82758	0.1180801392
2829.39787	0.1177544519
2827.96816	0.1174396947
2826.53845	0.1171312034
2825.10874	0.1168290898
2823.67903	0.1165363342
2822.24932	0.1162556410
2820.81961	0.1159872413
2819.38990	0.1157295778
2817.96019	0.1154825762
2816.53047	0.1152487397
2815.10076	0.1150299385
2813.67105	0.1148200482
2812.24134	0.1146029159
2810.81163	0.1143596843
2809.38192	0.1140809357
2807.95221	0.1137749478
2806.52250	0.1134655476
2805.09279	0.1131791472
2803.66308	0.1129331812
2802.23337	0.1127286330
2800.80366	0.1125521585
2799.37394	0.1123824865
2797.94423	0.1122012585
2796.51452	0.1120005026
2795.08481	0.1117824614
2793.65510	0.1115522534
2792.22539	0.1113107502
2790.79568	0.1110534742
2789.36597	0.1107796505
2787.93626	0.1104991883
2786.50655	0.1102300435
2785.07684	0.1099860147
2783.64712	0.1097679138
2782.21741	0.1095660850
2780.78770	0.1093694717
2779.35799	0.1091722846
2777.92828	0.1089721620
2776.49857	0.1087653786
2775.06886	0.1085458994
2773.63915	0.1083111167
2772.20944	0.1080654413
2770.77973	0.1078186706
2769.35002	0.1075802669
2767.92030	0.1073546559
2766.49059	0.1071399972
2765.06088	0.1069308743
2763.63117	0.1067216843
2762.20146	0.1065089852
2760.77175	0.1062918007
2759.34204	0.1060702279
2757.91233	0.1058454663
2756.48262	0.1056207865
2755.05291	0.1054037213
2753.62320	0.1052043661
2752.19348	0.1050283760
2750.76377	0.1048690751
2749.33406	0.1047071591
2747.90435	0.1045190915
2746.47464	0.1042916402
2745.04493	0.1040297374
2743.61522	0.1037534326
2742.18551	0.1034865007
2740.75580	0.1032443568
2739.32609	0.1030286998
2737.89638	0.1028305665
2736.46666	0.1026377380
2735.03695	0.1024435163
2733.60724	0.1022494808
2732.17753	0.1020617187
2730.74782	0.1018846184
2729.31811	0.1017163470
2727.88840	0.1015495881
2726.45869	0.1013762876
2725.02898	0.1011899784
2723.59927	0.1009874269
2722.16956	0.1007679254
2720.73984	0.1005341709
2719.31013	0.1002926230
2717.88042	0.1000517979
2716.45071	0.0998175219
2715.02100	0.0995906293
2713.59129	0.0993662402
2712.16158	0.0991396159
2710.73187	0.0989105105
2709.30216	0.0986847430
2707.87245	0.0984711125
2706.44274	0.0982758924
2705.01302	0.0980982110
2703.58331	0.0979300439
2702.15360	0.0977613255
2700.72389	0.0975862220
2699.29418	0.0974056795
2697.86447	0.0972265452
2696.43476	0.0970568359
2695.00505	0.0969008803
2693.57534	0.0967574343
2692.14563	0.0966181085
2690.71592	0.0964701697
2689.28620	0.0963040814
2687.85649	0.0961217508
2686.42678	0.0959393010
2684.99707	0.0957777724
2683.56736	0.0956472158
2682.13765	0.0955371484
2680.70794	0.0954218507
2679.27823	0.0952775404
2677.84852	0.0950980559
2676.41881	0.0948949382
2674.98910	0.0946880803
2673.55938	0.0944931358
2672.12967	0.0943160355
2670.69996	0.0941542462
2669.27025	0.0940002277
2667.84054	0.0938442424
2666.41083	0.0936795399
2664.98112	0.0935053080
2663.55141	0.0933279023
2662.12170	0.0931563079
2660.69199	0.0929953977
2659.26228	0.0928438455
2657.83256	0.0926963165
2656.40285	0.0925493836
2654.97314	0.0924028456
2653.54343	0.0922584757
2652.11372	0.0921160430
2650.68401	0.0919731185
2649.25430	0.0918278024
2647.82459	0.0916817039
2646.39488	0.0915402919
2644.96517	0.0914095938
2643.53546	0.0912919715
2642.10575	0.0911838636
2640.67603	0.0910767391
2639.24632	0.0909610242
2637.81661	0.0908314288
2636.38690	0.0906897113
2634.95719	0.0905446038
2633.52748	0.0904074833
2632.09777	0.0902883112
2630.66806	0.0901905522
2629.23835	0.0901100188
2627.80864	0.0900355801
2626.37893	0.0899547860
2624.94921	0.0898600891
2623.51950	0.0897524357
2622.08979	0.0896390751
2620.66008	0.0895282626
2619.23037	0.0894218013
2617.80066	0.0893159658
2616.37095	0.0892074928
2614.94124	0.0890997052
2613.51153	0.0890025347
2612.08182	0.0889230743
2610.65211	0.0888583064
2609.22239	0.0887943730
2607.79268	0.0887158737
2606.36297	0.0886174515
2604.93326	0.0885083824
2603.50355	0.0884049684
2602.07384	0.0883202553
2600.64413	0.0882576331
2599.21442	0.0882105976
2597.78471	0.0881692767
2596.35500	0.0881255493
2594.92529	0.0880748779
2593.49557	0.0880168602
2592.06586	0.0879537761
2590.63615	0.0878897533
2589.20644	0.0878304914
2587.77673	0.0877799541
2586.34702	0.0877393708
2584.91731	0.0877061710
2583.48760	0.0876768678
2582.05789	0.0876501352
2580.62818	0.0876272917
2579.19847	0.0876100659
2577.76875	0.0875957459
2576.33904	0.0875761807
2574.90933	0.0875433981
2573.47962	0.0874959305
2572.04991	0.0874411315
2570.62020	0.0873915553
2569.19049	0.0873557180
2567.76078	0.0873335600
2566.33107	0.0873161554
2564.90136	0.0872931778
2563.47165	0.0872588679
2562.04193	0.0872160569
2560.61222	0.0871745422
2559.18251	0.0871462896
2557.75280	0.0871390402
2556.32309	0.0871529281
2554.89338	0.0871810913
2553.46367	0.0872131735
2552.03396	0.0872398168
2550.60425	0.0872555450
2549.17454	0.0872605145
2547.74483	0.0872603282
2546.31511	0.0872635245
2544.88540	0.0872773230
2543.45569	0.0873025134
2542.02598	0.0873317569
2540.59627	0.0873554945
2539.16656	0.0873695835
2537.73685	0.0873788893
2536.30714	0.0873926878
2534.87743	0.0874170661
2533.44772	0.0874494836
2532.01801	0.0874810517
2530.58829	0.0875044540
2529.15858	0.0875202864
2527.72887	0.0875372887
2526.29916	0.0875661373
2524.86945	0.0876131654
2523.43974	0.0876761973
2522.01003	0.0877456069
2520.58032	0.0878098980
2519.15061	0.0878611058
2517.72090	0.0878981203
2516.29119	0.0879244283
2514.86147	0.0879445225
2513.43176	0.0879616365
2512.00205	0.0879770145
2510.57234	0.0879926085
2509.14263	0.0880114362
2507.71292	0.0880370513
2506.28321	0.0880715176
2504.85350	0.0881139413
2503.42379	0.0881617293
2501.99408	0.0882122517
2500.56437	0.0882648379
2499.13465	0.0883195549
2497.70494	0.0883757770
2496.27523	0.0884301588
2494.84552	0.0884792805
2493.41581	0.0885228887
2491.98610	0.0885653868
2490.55639	0.0886133239
2489.12668	0.0886694863
2487.69697	0.0887288600
2486.26726	0.0887809396
2484.83755	0.0888156146
2483.40784	0.0888305753
2481.97812	0.0888326094
2480.54841	0.0888343900
2479.11870	0.0888487771
2477.68899	0.0888834596
2476.25928	0.0889383256
2474.82957	0.0890057757
2473.39986	0.0890738368
2471.97015	0.0891314894
2470.54044	0.0891720131
2469.11073	0.0891953185
2467.68102	0.0892069787
2466.25130	0.0892163590
2464.82159	0.0892340019
2463.39188	0.0892687812
2461.96217	0.0893227383
2460.53246	0.0893900916
2459.10275	0.0894583762
2457.67304	0.0895149335
2456.24333	0.0895528868
2454.81362	0.0895725787
2453.38391	0.0895782411
2451.95420	0.0895747095
2450.52448	0.0895657018
2449.09477	0.0895551443
2447.66506	0.0895476341
2446.23535	0.0895466805
2444.80564	0.0895537436
2443.37593	0.0895683467
2441.94622	0.0895892829
2440.51651	0.0896160081
2439.08680	0.0896469355
2437.65709	0.0896796510
2436.22738	0.0897108391
2434.79766	0.0897382051
2433.36795	0.0897605866
2431.93824	0.0897768810
2430.50853	0.0897851884
2429.07882	0.0897838175
2427.64911	0.0897738263
2426.21940	0.0897598192
2424.78969	0.0897466391
2423.35998	0.0897359475
2421.93027	0.0897247419
2420.50056	0.0897075906
2419.07084	0.0896801576
2417.64113	0.0896428600
2416.21142	0.0896004513
2414.78171	0.0895599127
2413.35200	0.0895275623
2411.92229	0.0895065665
2410.49258	0.0894954354
2409.06287	0.0894877017
2407.63316	0.0894746259
2406.20345	0.0894496590
2404.77374	0.0894129276
2403.34402	0.0893721208
2401.91431	0.0893387049
2400.48460	0.0893216282
2399.05489	0.0893209577
2397.62518	0.0893277973
2396.19547	0.0893285275
2394.76576	0.0893119946
2393.33605	0.0892732665
2391.90634	0.0892152116
2390.47663	0.0891463012
2389.04692	0.0890771449
2387.61720	0.0890156254
2386.18749	0.0889639631
2384.75778	0.0889171660
2383.32807	0.0888663381
2381.89836	0.0888022780
2380.46865	0.0887177438
2379.03894	0.0886077657
2377.60923	0.0884683654
2376.17952	0.0882987455
2374.74981	0.0881022438
2373.32010	0.0878857300
2371.89038	0.0876538977
2370.46067	0.0874043703
2369.03096	0.0871294886
2367.60125	0.0868264809
2366.17154	0.0865036249
2364.74183	0.0861785784
2363.31212	0.0858701766
2361.88241	0.0855974555
2360.45270	0.0853817835
2359.02299	0.0852434710
2357.59328	0.0851974562
2356.16356	0.0852497742
2354.73385	0.0853955820
2353.30414	0.0856154263
2351.87443	0.0858741477
2350.44472	0.0861284509
2349.01501	0.0863341391
2347.58530	0.0864499509
2346.15559	0.0864434466
2344.72588	0.0863023996
2343.29617	0.0860524774
2341.86646	0.0857591182
2340.43674	0.0855002105
2339.00703	0.0853290036
2337.57732	0.0852601677
2336.14761	0.0852766111
2334.71790	0.0853400603
2333.28819	0.0854056031
2331.85848	0.0854389444
2330.42877	0.0854290128
2328.99906	0.0853852779
2327.56935	0.0853243396
2326.13964	0.0852601379
2324.70993	0.0852034390
2323.28021	0.0851684138
2321.85050	0.0851719156
2320.42079	0.0852253586
2318.99108	0.0853247195
2317.56137	0.0854476094
2316.13166	0.0855617374
2314.70195	0.0856386945
2313.27224	0.0856654942
2311.84253	0.0856507719
2310.41282	0.0856196806
2308.98311	0.0855979919
2307.55339	0.0855978951
2306.12368	0.0856122077
2304.69397	0.0856224895
2303.26426	0.0856142566
2301.83455	0.0855868012
2300.40484	0.0855514929
2298.97513	0.0855211392
2297.54542	0.0854979381
2296.11571	0.0854722857
2294.68600	0.0854296163
2293.25629	0.0853618383
2291.82657	0.0852730870
2290.39686	0.0851780549
2288.96715	0.0850931481
2287.53744	0.0850284770
2286.10773	0.0849843100
2284.67802	0.0849537402
2283.24831	0.0849275514
2281.81860	0.0848985016
2280.38889	0.0848614201
2278.95918	0.0848119184
2277.52947	0.0847464055
2276.09975	0.0846643895
2274.67004	0.0845724493
2273.24033	0.0844833851
2271.81062	0.0844102502
2270.38091	0.0843583196
2268.95120	0.0843214765
2267.52149	0.0842867419
2266.09178	0.0842421800
2264.66207	0.0841838866
2263.23236	0.0841161087
2261.80265	0.0840469375
2260.37293	0.0839833245
2258.94322	0.0839266032
2257.51351	0.0838732198
2256.08380	0.0838159844
2254.65409	0.0837497413
2253.22438	0.0836730301
2251.79467	0.0835889801
2250.36496	0.0835018530
2248.93525	0.0834152997
2247.50554	0.0833310187
2246.07583	0.0832487047
2244.64611	0.0831681266
2243.21640	0.0830891356
2241.78669	0.0830120668
2240.35698	0.0829379559
2238.92727	0.0828681886
2237.49756	0.0828042179
2236.06785	0.0827466473
2234.63814	0.0826949477
2233.20843	0.0826457813
2231.77872	0.0825945288
2230.34901	0.0825370476
2228.91929	0.0824723169
2227.48958	0.0824042484
2226.05987	0.0823393762
2224.63016	0.0822818726
2223.20045	0.0822313204
2221.77074	0.0821834281
2220.34103	0.0821358263
2218.91132	0.0820889771
2217.48161	0.0820446014
2216.05190	0.0820009261
2214.62219	0.0819518045
2213.19247	0.0818903521
2211.76276	0.0818150565
2210.33305	0.0817310587
2208.90334	0.0816480145
2207.47363	0.0815735459
2206.04392	0.0815088302
2204.61421	0.0814485028
2203.18450	0.0813839957
2201.75479	0.0813102201
2200.32508	0.0812294111
2198.89537	0.0811498985
2197.46565	0.0810796320
2196.03594	0.0810202286
2194.60623	0.0809649229
2193.17652	0.0809028298
2191.74681	0.0808246508
2190.31710	0.0807272866
2188.88739	0.0806145146
2187.45768	0.0804959461
2186.02797	0.0803839490
2184.59826	0.0802896693
2183.16855	0.0802176073
2181.73883	0.0801630616
2180.30912	0.0801142752
2178.87941	0.0800594017
2177.44970	0.0799929798
2176.01999	0.0799165517
2174.59028	0.0798369348
2173.16057	0.0797600672
2171.73086	0.0796883181
2170.30115	0.0796201825
2168.87144	0.0795524642
2167.44173	0.0794821754
2166.01202	0.0794064328
2164.58230	0.0793224946
2163.15259	0.0792288780
2161.72288	0.0791266784
2160.29317	0.0790207237
2158.86346	0.0789177343
2157.43375	0.0788222551
2156.00404	0.0787350461
2154.57433	0.0786537528
2153.14462	0.0785764754
2151.71491	0.0785029605
2150.28520	0.0784329697
2148.85548	0.0783650950
2147.42577	0.0782977566
2145.99606	0.0782313868
2144.56635	0.0781688467
2143.13664	0.0781121999
2141.70693	0.0780593380
2140.27722	0.0780037567
2138.84751	0.0779389888
2137.41780	0.0778625458
2135.98809	0.0777760595
2134.55838	0.0776821002
2133.12866	0.0775825530
2131.69895	0.0774795040
2130.26924	0.0773767307
2128.83953	0.0772789568
2127.40982	0.0771889091
2125.98011	0.0771049634
2124.55040	0.0770226792
2123.12069	0.0769400001
2121.69098	0.0768599734
2120.26127	0.0767881051
2118.83156	0.0767270699
2117.40184	0.0766737610
2115.97213	0.0766209513
2114.54242	0.0765631795
2113.11271	0.0764992684
2111.68300	0.0764315426
2110.25329	0.0763615072
2108.82358	0.0762878135
2107.39387	0.0762080848
2105.96416	0.0761218369
2104.53445	0.0760325193
2103.10474	0.0759454668
2101.67502	0.0758658946
2100.24531	0.0757974982
2098.81560	0.0757398680
2097.38589	0.0756885558
2095.95618	0.0756360814
2094.52647	0.0755752325
2093.09676	0.0755026639
2091.66705	0.0754207075
2090.23734	0.0753343329
2088.80763	0.0752477944
2087.37792	0.0751631781
2085.94820	0.0750813559
2084.51849	0.0750041232
2083.08878	0.0749330893
2081.65907	0.0748668984
2080.22936	0.0747999772
2078.79965	0.0747257173
2077.36994	0.0746412352
2075.94023	0.0745506287
2074.51052	0.0744635016
2073.08081	0.0743886009
2071.65110	0.0743292794
2070.22138	0.0742810816
2068.79167	0.0742340609
2067.36196	0.0741770044
2065.93225	0.0741020218
2064.50254	0.0740083009
2063.07283	0.0739026889
2061.64312	0.0737969801
2060.21341	0.0737021565
2058.78370	0.0736227855
2057.35399	0.0735551938
2055.92428	0.0734920949
2054.49456	0.0734268874
2053.06485	0.0733566359
2051.63514	0.0732808188
2050.20543	0.0731987581
2048.77572	0.0731102526
2047.34601	0.0730179995
2045.91630	0.0729279071
2044.48659	0.0728468671
2043.05688	0.0727777779
2041.62717	0.0727172121
2040.19746	0.0726566166
2038.76774	0.0725876540
2037.33803	0.0725069493
2035.90832	0.0724187344
2034.47861	0.0723328665
2033.04890	0.0722593069
2031.61919	0.0722021684
2030.18948	0.0721561089
2028.75977	0.0721101090
2027.33006	0.0720541552
2025.90035	0.0719852522
2024.47064	0.0719078705
2023.04092	0.0718281195
2021.61121	0.0717491135
2020.18150	0.0716700032
2018.75179	0.0715906918
2017.32208	0.0715152398
2015.89237	0.0714511499
2014.46266	0.0714038908
2013.03295	0.0713707805
2011.60324	0.0713414922
2010.17353	0.0713040680
2008.74382	0.0712531582
2007.31411	0.0711929202
2005.88439	0.0711327493
2004.45468	0.0710805804
2003.02497	0.0710390881
2001.59526	0.0710068643
2000.16555	0.0709808916
1998.73584	0.0709564760
1997.30613	0.0709260926
1995.87642	0.0708821416
1994.44671	0.0708223879
1993.01700	0.0707543492
1991.58729	0.0706925988
1990.15757	0.0706497431
1988.72786	0.0706273541
1987.29815	0.0706164837
1985.86844	0.0706049353
1984.43873	0.0705852956
1983.00902	0.0705567896
1981.57931	0.0705232024
1980.14960	0.0704893172
1978.71989	0.0704582557
1977.29018	0.0704310685
1975.86047	0.0704068094
1974.43075	0.0703838840
1973.00104	0.0703601763
1971.57133	0.0703342706
1970.14162	0.0703063905
1968.71191	0.0702787861
1967.28220	0.0702548698
1965.85249	0.0702363700
1964.42278	0.0702226758
1962.99307	0.0702115372
1961.56336	0.0702023208
1960.13365	0.0701965094
1958.70393	0.0701950118
1957.27422	0.0701956823
1955.84451	0.0701927617
1954.41480	0.0701814741
1952.98509	0.0701613352
1951.55538	0.0701364800
1950.12567	0.0701120198
1948.69596	0.0700909346
1947.26625	0.0700731128
1945.83654	0.0700585097
1944.40683	0.0700498074
1942.97711	0.0700529143
1941.54740	0.0700730532
1940.11769	0.0701089725
1938.68798	0.0701504126
1937.25827	0.0701822340
1935.82856	0.0701944679
1934.39885	0.0701888055
1932.96914	0.0701769143
1931.53943	0.0701695457
1930.10972	0.0701680258
1928.68001	0.0701647103
1927.25029	0.0701535121
1925.82058	0.0701367483
1924.39087	0.0701219365
1922.96116	0.0701141208
1921.53145	0.0701099187
1920.10174	0.0701022521
1918.67203	0.0700885057
1917.24232	0.0700746626
1915.81261	0.0700708628
1914.38290	0.0700844303
1912.95319	0.0701156110
1911.52347	0.0701596588
1910.09376	0.0702115968
1908.66405	0.0702699348
1907.23434	0.0703359470
1905.80463	0.0704084486
1904.37492	0.0704800859
1902.94521	0.0705394968
1901.51550	0.0705804229
1900.08579	0.0706073716
1898.65608	0.0706332028
1897.22637	0.0706687495
1895.79665	0.0707141981
1894.36694	0.0707591623
1892.93723	0.0707894489
1891.50752	0.0707959384
1890.07781	0.0707799718
1888.64810	0.0707558766
1887.21839	0.0707456991
1885.78868	0.0707682446
1884.35897	0.0708286017
1882.92926	0.0709151477
1881.49955	0.0710086673
1880.06983	0.0710933283
1878.64012	0.0711627007
1877.21041	0.0712157637
1875.78070	0.0712499842
1874.35099	0.0712580383
1872.92128	0.0712324157
1871.49157	0.0711742565
1870.06186	0.0711036026
1868.63215	0.0710592419
1867.20244	0.0710797310
1865.77273	0.0711755976
1864.34301	0.0713207498
1862.91330	0.0714726672
1861.48359	0.0715999678
1860.05388	0.0716959238
1858.62417	0.0717735440
1857.19446	0.0718482137
1855.76475	0.0719240308
1854.33504	0.0719963461
1852.90533	0.0720610917
1851.47562	0.0721191540
1850.04591	0.0721708685
1848.61619	0.0722126216
1847.18648	0.0722427666
1845.75677	0.0722708032
1844.32706	0.0723164156
1842.89735	0.0723944530
1841.46764	0.0725004002
1840.03793	0.0726159513
1838.60822	0.0727223530
1837.17851	0.0728074983
1835.74880	0.0728673786
1834.31909	0.0729056224
1832.88938	0.0729334801
1831.45966	0.0729658753
1830.02995	0.0730154887
1828.60024	0.0730890259
1827.17053	0.0731896013
1825.74082	0.0733193383
1824.31111	0.0734759048
1822.88140	0.0736486688
1821.45169	0.0738208517
1820.02198	0.0739786476
1818.59227	0.0741156563
1817.16256	0.0742298812
1815.73284	0.0743184015
1814.30313	0.0743800253
1812.87342	0.0744231343
1811.44371	0.0744683295
1810.01400	0.0745397434
1808.58429	0.0746500641
1807.15458	0.0747937337
1805.72487	0.0749525949
1804.29516	0.0751060322
1802.86545	0.0752394572
1801.43574	0.0753517300
1800.00602	0.0754561275
1798.57631	0.0755693540
1797.14660	0.0756965652
1795.71689	0.0758272409
1794.28718	0.0759519786
1792.85747	0.0760794878
1791.42776	0.0762332976
1789.99805	0.0764259845
1788.56834	0.0766421333
1787.13863	0.0768535435
1785.70892	0.0770432353
1784.27920	0.0772138014
1782.84949	0.0773800090
1781.41978	0.0775556937
1779.99007	0.0777448490
1778.56036	0.0779384002
1777.13065	0.0781160444
1775.70094	0.0782539248
1774.27123	0.0783443525
1772.84152	0.0784191415
1771.41181	0.0785458311
1769.98210	0.0787766278
1768.55238	0.0791026428
1767.12267	0.0794743747
1765.69296	0.0798491314
1764.26325	0.0802105442
1762.83354	0.0805611610
1761.40383	0.0809110925
1759.97412	0.0812749788
1758.54441	0.0816674829
1757.11470	0.0820924789
1755.68499	0.0825379565
1754.25528	0.0829866529
1752.82556	0.0834372267
1751.39585	0.0839132592
1749.96614	0.0844429210
1748.53643	0.0850279406
1747.10672	0.0856412500
1745.67701	0.0862582251
1744.24730	0.0868757367
1742.81759	0.0874975175
1741.38788	0.0881155878
1739.95817	0.0887133926
1738.52846	0.0892838538
1737.09874	0.0898418501
1735.66903	0.0904187039
1734.23932	0.0910502374
1732.80961	0.0917648003
1731.37990	0.0925723165
1729.95019	0.0934631899
1728.52048	0.0944194272
1727.09077	0.0954237878
1725.66106	0.0964623466
1724.23135	0.0975216702
1722.80164	0.0985925496
1721.37192	0.0996859074
1719.94221	0.1008539200
1718.51250	0.1021868214
1717.08279	0.1037378237
1715.65308	0.1054262221
1714.22337	0.1070874557
1712.79366	0.1086330563
1711.36395	0.1100970730
1709.93424	0.1115664765
1708.50453	0.1131164357
1707.07482	0.1147924364
1705.64510	0.1166328564
1704.21539	0.1187109202
1702.78568	0.1211606488
1701.35597	0.1241483092
1699.92626	0.1277537048
1698.49655	0.1318078935
1697.06684	0.1358961463
1695.63713	0.1396314502
1694.20742	0.1428834051
1692.77771	0.1457309723
1691.34800	0.1483233869
1689.91828	0.1508163214
1688.48857	0.1533877999
1687.05886	0.1562608480
1685.62915	0.1596284509
1684.19944	0.1634276360
1682.76973	0.1672445834
1681.34002	0.1706774980
1679.91031	0.1736869812
1678.48060	0.1764924973
1677.05089	0.1793227047
1675.62118	0.1822898537
1674.19147	0.1853955835
1672.76175	0.1886141449
1671.33204	0.1919501722
1669.90233	0.1953905076
1668.47262	0.1988467425
1667.04291	0.2022145689
1665.61320	0.2054775804
1664.18349	0.2086933702
1662.75378	0.2118608356
1661.32407	0.2148302943
1659.89436	0.2173769027
1658.46465	0.2193327993
1657.03493	0.2205986828
1655.60522	0.2210482210
1654.17551	0.2205204368
1652.74580	0.2190421224
1651.31609	0.2169838548
1649.88638	0.2147350013
1648.45667	0.2123856097
1647.02696	0.2099023759
1645.59725	0.2074077725
1644.16754	0.2051516771
1642.73783	0.2032617927
1641.30811	0.2016197294
1639.87840	0.1999402493
1638.44869	0.1979164630
1637.01898	0.1953986734
1635.58927	0.1925634742
1634.15956	0.1897971630
1632.72985	0.1873005331
1631.30014	0.1849351823
1629.87043	0.1823989302
1628.44072	0.1793968379
1627.01101	0.1757350564
1625.58129	0.1714138389
1624.15158	0.1666654646
1622.72187	0.1618125588
1621.29216	0.1570300013
1619.86245	0.1522571743
1618.43274	0.1473526508
1617.00303	0.1423547715
1615.57332	0.1375812739
1614.14361	0.1333987862
1612.71390	0.1299113929
1611.28419	0.1269433349
1609.85447	0.1242520958
1608.42476	0.1217119396
1606.99505	0.1193476170
1605.56534	0.1172442734
1604.13563	0.1154448166
1602.70592	0.1139315292
1601.27621	0.1126689762
1599.84650	0.1116319448
1598.41679	0.1107928827
1596.98708	0.1101104766
1595.55737	0.1095495895
1594.12765	0.1091046929
1592.69794	0.1087952405
1591.26823	0.1086357459
1589.83852	0.1086204872
1588.40881	0.1087370142
1586.97910	0.1089812443
1585.54939	0.1093490943
1584.11968	0.1098203808
1582.68997	0.1103634238
1581.26026	0.1109604239
1579.83055	0.1116288602
1578.40083	0.1124111637
1576.97112	0.1133351102
1575.54141	0.1143773347
1574.11170	0.1154825091
1572.68199	0.1166248322
1571.25228	0.1178307757
1569.82257	0.1191367209
1568.39286	0.1205291450
1566.96315	0.1219332740
1565.53344	0.1232740134
1564.10373	0.1245475486
1562.67401	0.1258530319
1561.24430	0.1273924708
1559.81459	0.1293927580
1558.38488	0.1318470687
1556.95517	0.1343487203
1555.52546	0.1364775300
1554.09575	0.1381536424
1552.66604	0.1394753158
1551.23633	0.1405040026
1549.80662	0.1412242651
1548.37691	0.1415935755
1546.94719	0.1415840685
1545.51748	0.1411695182
1544.08777	0.1402756125
1542.65806	0.1388025284
1541.22835	0.1368197352
1539.79864	0.1347187608
1538.36893	0.1328983456
1536.93922	0.1313936263
1535.50951	0.1299962997
1534.07980	0.1285221577
1532.65009	0.1269223243
1531.22037	0.1252501011
1529.79066	0.1235665008
1528.36095	0.1218754873
1526.93124	0.1201351807
1525.50153	0.1183149666
1524.07182	0.1164378300
1522.64211	0.1145803332
1521.21240	0.1128296927
1519.78269	0.1112272069
1518.35298	0.1097439155
1516.92327	0.1083045378
1515.49356	0.1068363115
1514.06384	0.1052902266
1512.63413	0.1036113203
1511.20442	0.1016800627
1509.77471	0.0992962122
1508.34500	0.0963426977
1506.91529	0.0931333378
1505.48558	0.0903700292
1504.05587	0.0884440914
1502.62616	0.0871652067
1501.19645	0.0861517712
1499.76674	0.0851318538
1498.33702	0.0840164050
1496.90731	0.0828737319
1495.47760	0.0818228051
1494.04789	0.0809103176
1492.61818	0.0800932944
1491.18847	0.0793166161
1489.75876	0.0785865858
1488.32905	0.0779802129
1486.89934	0.0775762126
1485.46963	0.0773841888
1484.03992	0.0773529708
1482.61020	0.0774253607
1481.18049	0.0775732696
1479.75078	0.0777974576
1478.32107	0.0781124160
1476.89136	0.0785365850
1475.46165	0.0790880769
1474.03194	0.0797694325
1472.60223	0.0805325508
1471.17252	0.0812751055
1469.74281	0.0818996951
1468.31310	0.0823653787
1466.88338	0.0826879963
1465.45367	0.0829171538
1464.02396	0.0831088796
1462.59425	0.0833000988
1461.16454	0.0834990889
1459.73483	0.0836962834
1458.30512	0.0838755444
1456.87541	0.0840139166
1455.44570	0.0840819329
1454.01599	0.0840560421
1452.58628	0.0839247555
1451.15656	0.0836832598
1449.72685	0.0833347887
1448.29714	0.0829019919
1446.86743	0.0824318528
1445.43772	0.0819755048
1444.00801	0.0815553963
1442.57830	0.0811517388
1441.14859	0.0807165280
1439.71888	0.0802014470
1438.28917	0.0795905218
1436.85946	0.0789290071
1435.42974	0.0783143118
1434.00003	0.0778374001
1432.57032	0.0775339380
1431.14061	0.0773934051
1429.71090	0.0773910210
1428.28119	0.0775035471
1426.85148	0.0777088776
1425.42177	0.0779850185
1423.99206	0.0783158019
1422.56235	0.0786983371
1421.13264	0.0791424885
1419.70292	0.0796565339
1418.27321	0.0802239627
1416.84350	0.0808014572
1415.41379	0.0813485235
1413.98408	0.0818547159
1412.55437	0.0823360905
1411.12466	0.0828133970
1409.69495	0.0832917914
1408.26524	0.0837552994
1406.83553	0.0841758698
1405.40582	0.0845281705
1403.97610	0.0847956836
1402.54639	0.0849665180
1401.11668	0.0850290731
1399.68697	0.0849720910
1398.25726	0.0847916901
1396.82755	0.0845021904
1395.39784	0.0841387659
1393.96813	0.0837406665
1392.53842	0.0833235607
1391.10871	0.0828694403
1389.67900	0.0823413804
1388.24928	0.0817135945
1386.81957	0.0809968337
1385.38986	0.0802395642
1383.96015	0.0794956386
1382.53044	0.0787909701
1381.10073	0.0781202838
1379.67102	0.0774680898
1378.24131	0.0768313929
1376.81160	0.0762297809
1375.38189	0.0757021159
1373.95218	0.0752911717
1372.52246	0.0750199035
1371.09275	0.0748742223
1369.66304	0.0748049915
1368.23333	0.0747489035
1366.80362	0.0746557787
1365.37391	0.0745095983
1363.94420	0.0743353888
1362.51449	0.0741843730
1361.08478	0.0741008222
1359.65507	0.0740942582
1358.22536	0.0741401240
1356.79565	0.0742039680
1355.36593	0.0742624104
1353.93622	0.0743106008
1352.50651	0.0743556619
1351.07680	0.0744047910
1349.64709	0.0744571164
1348.21738	0.0745028406
1346.78767	0.0745320618
1345.35796	0.0745411888
1343.92825	0.0745342150
1342.49854	0.0745209381
1341.06883	0.0745157152
1339.63911	0.0745359957
1338.20940	0.0745954961
1336.77969	0.0746955872
1335.34998	0.0748234764
1333.92027	0.0749625638
1332.49056	0.0751057267
1331.06085	0.0752604455
1329.63114	0.0754421726
1328.20143	0.0756620839
1326.77172	0.0759190470
1325.34201	0.0762022883
1323.91229	0.0764978454
1322.48258	0.0767948776
1321.05287	0.0770863816
1319.62316	0.0773689970
1318.19345	0.0776416436
1316.76374	0.0779055655
1315.33403	0.0781627446
1313.90432	0.0784150138
1312.47461	0.0786634311
1311.04490	0.0789078623
1309.61519	0.0791472718
1308.18547	0.0793793276
1306.75576	0.0796017721
1305.32605	0.0798149407
1303.89634	0.0800217092
1302.46663	0.0802252069
1301.03692	0.0804263130
1299.60721	0.0806222707
1298.17750	0.0808081925
1296.74779	0.0809784606
1295.31808	0.0811266527
1293.88837	0.0812475160
1292.45865	0.0813390985
1291.02894	0.0814060941
1289.59923	0.0814587399
1288.16952	0.0815082714
1286.73981	0.0815610811
1285.31010	0.0816165879
1283.88039	0.0816696957
1282.45068	0.0817168728
1281.02097	0.0817610249
1279.59126	0.0818137452
1278.16155	0.0818902254
1276.73183	0.0820032656
1275.30212	0.0821592212
1273.87241	0.0823601857
1272.44270	0.0826088339
1271.01299	0.0829109177
1269.58328	0.0832714364
1268.15357	0.0836903527
1266.72386	0.0841631442
1265.29415	0.0846873224
1263.86444	0.0852686465
1262.43473	0.0859190747
1261.00501	0.0866453350
1259.57530	0.0874373317
1258.14559	0.0882638842
1256.71588	0.0890818834
1255.28617	0.0898482502
1253.85646	0.0905298144
1252.42675	0.0911059156
1250.99704	0.0915645510
1249.56733	0.0918956101
1248.13762	0.0920880139
1246.70791	0.0921328813
1245.27819	0.0920311511
1243.84848	0.0917984471
1242.41877	0.0914603695
1240.98906	0.0910429284
1239.55935	0.0905649811
1238.12964	0.0900389552
1236.69993	0.0894759670
1235.27022	0.0888896585
1233.84051	0.0882931948
1232.41080	0.0876966938
1230.98109	0.0871061683
1229.55137	0.0865264013
1228.12166	0.0859609395
1226.69195	0.0854081213
1225.26224	0.0848589689
1223.83253	0.0842979029
1222.40282	0.0837119818
1220.97311	0.0830989182
1219.54340	0.0824682787
1218.11369	0.0818359628
1216.68398	0.0812168047
1215.25427	0.0806214660
1213.82455	0.0800597742
1212.39484	0.0795435384
1210.96513	0.0790853426
1209.53542	0.0786921009
1208.10571	0.0783622116
1206.67600	0.0780887753
1205.24629	0.0778697953
1203.81658	0.0777139813
1202.38687	0.0776391625
1200.95716	0.0776613578
1199.52745	0.0777865574
1198.09774	0.0780105144
1196.66802	0.0783251002
1195.23831	0.0787251145
1193.80860	0.0792073533
1192.37889	0.0797659755
1190.94918	0.0803885534
1189.51947	0.0810563266
1188.08976	0.0817500278
1186.66005	0.0824566036
1185.23034	0.0831745863
1183.80063	0.0839169621
1182.37092	0.0847067684
1180.94120	0.0855672583
1179.51149	0.0865100697
1178.08178	0.0875281021
1176.65207	0.0885981172
1175.22236	0.0896899253
1173.79265	0.0907774121
1172.36294	0.0918465108
1170.93323	0.0928996578
1169.50352	0.0939538479
1168.07381	0.0950323269
1166.64410	0.0961524993
1165.21438	0.0973183215
1163.78467	0.0985202789
1162.35496	0.0997439399
1160.92525	0.1009762213
1159.49554	0.1022054255
1158.06583	0.1034194604
1156.63612	0.1046081111
1155.20641	0.1057698727
1153.77670	0.1069171280
1152.34699	0.1080711484
1150.91728	0.1092499420
1149.48756	0.1104601249
1148.05785	0.1117000654
1146.62814	0.1129694134
1145.19843	0.1142787114
1143.76872	0.1156463623
1142.33901	0.1170907989
1140.90930	0.1186234206
1139.47959	0.1202471927
1138.04988	0.1219611391
1136.62017	0.1237624511
1135.19046	0.1256451756
1133.76074	0.1275963634
1132.33103	0.1295955777
1130.90132	0.1316209286
1129.47161	0.1336595863
1128.04190	0.1357132494
1126.61219	0.1377937496
1125.18248	0.1399094909
1123.75277	0.1420505792
1122.32306	0.1441856474
1120.89335	0.1462722570
1119.46364	0.1482751667
1118.03392	0.1501817405
1116.60421	0.1520045847
1115.17450	0.1537690163
1113.74479	0.1554991305
1112.31508	0.1572061181
1110.88537	0.1588890105
1109.45566	0.1605367959
1108.02595	0.1621294171
1106.59624	0.1636357754
1105.16653	0.1650144011
1103.73682	0.1662244499
1102.30710	0.1672410071
1100.87739	0.1680659056
1099.44768	0.1687254608
1098.01797	0.1692595631
1096.58826	0.1697088778
1095.15855	0.1701059639
1093.72884	0.1704672873
1092.29913	0.1707872748
1090.86942	0.1710363925
1089.43971	0.1711687446
1088.01000	0.1711381525
1086.58028	0.1709127575
1085.15057	0.1704806685
1083.72086	0.1698460430
1082.29115	0.1690217406
1080.86144	0.1680258811
1079.43173	0.1668787450
1078.00202	0.1655973196
1076.57231	0.1641878337
1075.14260	0.1626450419
1073.71289	0.1609622091
1072.28318	0.1591454446
1070.85346	0.1572198719
1069.42375	0.1552203745
1067.99404	0.1531736404
1066.56433	0.1510859877
1065.13462	0.1489449739
1063.70491	0.1467286199
1062.27520	0.1444152445
1060.84549	0.1419883668
1059.41578	0.1394387037
1057.98607	0.1367703974
1056.55636	0.1340045333
1055.12664	0.1311795712
1053.69693	0.1283414364
1052.26722	0.1255304068
1050.83751	0.1227722466
1049.40780	0.1200792715
1047.97809	0.1174593717
1046.54838	0.1149228737
1045.11867	0.1124803424
1043.68896	0.1101352274
1042.25925	0.1078794599
1040.82954	0.1056997627
1039.39983	0.1035925299
1037.97011	0.1015732959
1036.54040	0.0996711254
1035.11069	0.0979100317
1033.68098	0.0962904766
1032.25127	0.0947861820
1030.82156	0.0933611840
1029.39185	0.0919916406
1027.96214	0.0906785503
1026.53243	0.0894400850
1025.10272	0.0882924646
1023.67301	0.0872378275
1022.24329	0.0862698182
1020.81358	0.0853933096
1019.38387	0.0846387222
1017.95416	0.0840557292
1016.52445	0.0836909190
1015.09474	0.0835645720
1013.66503	0.0836647078
1012.23532	0.0839605555
1010.80561	0.0844231769
1009.37590	0.0850391537
1007.94619	0.0858096108
1006.51647	0.0867373645
1005.08676	0.0878136009
1003.65705	0.0890122280
1002.22734	0.0902943388
1000.79763	0.0916166827
999.36792	0.0929382220
997.93821	0.0942202881
996.50850	0.0954243988
995.07879	0.0965079889
993.64908	0.0974258333
992.21937	0.0981354937
990.78965	0.0986058339
989.35994	0.0988238603
987.93023	0.0987945125
986.50052	0.0985313877
985.07081	0.0980443507
983.64110	0.0973343849
982.21139	0.0964002907
980.78168	0.0952543616
979.35197	0.0939307436
977.92226	0.0924791321
976.49255	0.0909481570
975.06283	0.0893713608
973.63312	0.0877663940
972.20341	0.0861461237
970.77370	0.0845300257
969.34399	0.0829457939
967.91428	0.0814224929
966.48457	0.0799817145
965.05486	0.0786334947
963.62515	0.0773798227
962.19544	0.0762214437
960.76573	0.0751624405
959.33601	0.0742104426
957.90630	0.0733729079
956.47659	0.0726544410
955.04688	0.0720572099
953.61717	0.0715819895
952.18746	0.0712260082
950.75775	0.0709782466
949.32804	0.0708161667
947.89833	0.0707108155
946.46862	0.0706368238
945.03891	0.0705791712
943.60919	0.0705323368
942.17948	0.0704926923
940.74977	0.0704532936
939.32006	0.0704045221
937.89035	0.0703385919
936.46064	0.0702513978
935.03093	0.0701409802
933.60122	0.0700047687
932.17151	0.0698392540
930.74180	0.0696431771
929.31209	0.0694198161
927.88237	0.0691776648
926.45266	0.0689257830
925.02295	0.0686713830
923.59324	0.0684168562
922.16353	0.0681627169
920.73382	0.0679098517
919.30411	0.0676582828
917.87440	0.0674038678
916.44469	0.0671355501
915.01498	0.0668400377
913.58527	0.0665135384
912.15555	0.0661700368
910.72584	0.0658402368
909.29613	0.0655603036
907.86642	0.0653589219
906.43671	0.0652503073
905.00700	0.0652353913
903.57729	0.0653038025
902.14758	0.0654385164
900.71787	0.0656227395
899.28816	0.0658495128
897.85845	0.0661291853
896.42873	0.0664827004
894.99902	0.0669244677
893.56931	0.0674455911
892.13960	0.0680126846
890.70989	0.0685843378
889.28018	0.0691342279
887.85047	0.0696618631
886.42076	0.0701840594
884.99105	0.0707138926
883.56134	0.0712434277
882.13163	0.0717463046
880.70192	0.0721952617
879.27220	0.0725845322
877.84249	0.0729368776
876.41278	0.0732908025
874.98307	0.0736742467
873.55336	0.0740846470
872.12365	0.0744872615
870.69394	0.0748321116
869.26423	0.0750757828
867.83452	0.0751971006
866.40481	0.0752008259
864.97510	0.0751116648
863.54538	0.0749632716
862.11567	0.0747839287
860.68596	0.0745836645
859.25625	0.0743499473
857.82654	0.0740548670
856.39683	0.0736726224
854.96712	0.0731963366
853.53741	0.0726425722
852.10770	0.0720423609
850.67799	0.0714263171
849.24828	0.0708138272
847.81856	0.0702133328
846.38885	0.0696301982
844.95914	0.0690725520
843.52943	0.0685513914
842.09972	0.0680725127
840.67001	0.0676301792
839.24030	0.0672064051
837.81059	0.0667812899
836.38088	0.0663467273
834.95117	0.0659138635
833.52146	0.0655066594
832.09174	0.0651433766
830.66203	0.0648167059
829.23232	0.0644886270
827.80261	0.0641075373
826.37290	0.0636404827
824.94319	0.0630975887
823.51348	0.0625325665
822.08377	0.0620143525
820.65406	0.0615916625
819.22435	0.0612753667
817.79464	0.0610461123
816.36492	0.0608752817
814.93521	0.0607401580
813.50550	0.0606255233
812.07579	0.0605196953
810.64608	0.0604168959
809.21637	0.0603201315
807.78666	0.0602414384
806.35695	0.0601924062
804.92724	0.0601759925
803.49753	0.0601864606
802.06782	0.0602159575
800.63810	0.0602558926
799.20839	0.0602930970
797.77868	0.0603093356
796.34897	0.0602904223
794.91926	0.0602415279
793.48955	0.0601904429
792.05984	0.0601727217
790.63013	0.0602103360
789.20042	0.0603008009
787.77071	0.0604231171
786.34100	0.0605524890
784.91128	0.0606683828
783.48157	0.0607568324
782.05186	0.0608068518
780.62215	0.0608113781
779.19244	0.0607695729
777.76273	0.0606907383
776.33302	0.0605959073
774.90331	0.0605156794
773.47360	0.0604818463
772.04389	0.0605142787
770.61418	0.0606125742
769.18446	0.0607562363
767.75475	0.0609142072
766.32504	0.0610557348
764.89533	0.0611568652
763.46562	0.0612062477
762.03591	0.0612093173
760.60620	0.0611912869
759.17649	0.0611895882
757.74678	0.0612340830
756.31707	0.0613300987
754.88736	0.0614544041
753.45764	0.0615713485
752.02793	0.0616571121
750.59822	0.0617125183
749.16851	0.0617567115
747.73880	0.0618054457
746.30909	0.0618533194
744.87938	0.0618752316
743.44967	0.0618473813
742.01996	0.0617729165
740.59025	0.0616882034
739.16054	0.0616433881
737.73082	0.0616708063
736.30111	0.0617683530
734.87140	0.0619100668
733.44169	0.0620722808
732.01198	0.0622519776
730.58227	0.0624660589
729.15256	0.0627352446
727.72285	0.0630658939
726.29314	0.0634401664
724.86343	0.0638174340
723.43372	0.0641490594
722.00401	0.0644020885
720.57429	0.0645786673
719.14458	0.0647172108
717.71487	0.0648686960
716.28516	0.0650660917
714.85545	0.0653092787
713.42574	0.0655748397
711.99603	0.0658373460
710.56632	0.0660861433
709.13661	0.0663275793
707.70690	0.0665754229
706.27719	0.0668361485
704.84747	0.0670977831
703.41776	0.0673286244
701.98805	0.0674861073
700.55834	0.0675331280
699.12863	0.0674537197
697.69892	0.0672602579
696.26921	0.0669909120
694.83950	0.0666968003
693.40979	0.0664267167
691.98008	0.0662168562
690.55037	0.0660879835
689.12065	0.0660475641
687.69094	0.0660877451
686.26123	0.0661785379
684.83152	0.0662675351
683.40181	0.0662993193
681.97210	0.0662510172
680.54239	0.0661577061
679.11268	0.0660949126
677.68297	0.0661219209
676.25326	0.0662279204
674.82355	0.0663347840
673.39383	0.0663553253
671.96412	0.0662574992
670.53441	0.0661016703
669.10470	0.0660255998
667.67499	0.0661427528
666.24528	0.0664160997
664.81557	0.0666926354
663.38586	0.0668444186
661.95615	0.0668290481
660.52644	0.0666683093
659.09673	0.0664200783
657.66701	0.0661575273
656.23730	0.0659479424
654.80759	0.0658339113
653.37788	0.0658249334
651.94817	0.0658978671
650.51846	0.0660064891
649.08875	0.0661023036
647.65904	0.0661548078
646.22933	0.0661599934
644.79962	0.0661309958
643.36991	0.0660853013
641.94019	0.0660377741
640.51048	0.0659979358
639.08077	0.0659637600
637.65106	0.0659142584
636.22135	0.0658095703
634.79164	0.0656036809
633.36193	0.0652595758
631.93222	0.0647562146
630.50251	0.0640868023
629.07280	0.0632628277
627.64309	0.0623262525
626.21337	0.0613611042
624.78366	0.0604819953
623.35395	0.0597945936
621.92424	0.0593459234
620.49453	0.0591040999
619.06482	0.0589756034
617.63511	0.0588427559
616.20540	0.0586098321
614.77569	0.0582482778
613.34598	0.0578176156
611.91627	0.0574329644
610.48655	0.0571911074
609.05684	0.0571081378
607.62713	0.0571301915
606.19742	0.0572008826
604.76771	0.0573168322
603.33800	0.0575202815
601.90829	0.0578478388
600.47858	0.0582914390
599.04887	0.0587945320
