3997.47168	0.0339250937
3996.04197	0.0339515433
3994.61226	0.0339784995
3993.18255	0.0340105258
3991.75284	0.0340542011
3990.32312	0.0341143422
3988.89341	0.0341887213
3987.46370	0.0342687704
3986.03399	0.0343433432
3984.60428	0.0344049521
3983.17457	0.0344537944
3981.74486	0.0344937034
3980.31515	0.0345269963
3978.88544	0.0345503725
3977.45573	0.0345606059
3976.02602	0.0345610827
3974.59630	0.0345628485
3973.16659	0.0345757976
3971.73688	0.0345986150
3970.30717	0.0346191078
3968.87746	0.0346244611
3967.44775	0.0346137807
3966.01804	0.0345984176
3964.58833	0.0345930085
3963.15862	0.0346065760
3961.72891	0.0346408896
3960.29920	0.0346932076
3958.86948	0.0347597748
3957.43977	0.0348341241
3956.01006	0.0349059328
3954.58035	0.0349631347
3953.15064	0.0349958502
3951.72093	0.0350001156
3950.29122	0.0349792689
3948.86151	0.0349434689
3947.43180	0.0349051766
3946.00209	0.0348758623
3944.57238	0.0348625109
3943.14266	0.0348690748
3941.71295	0.0348973498
3940.28324	0.0349443927
3938.85353	0.0349998921
3937.42382	0.0350479856
3935.99411	0.0350754298
3934.56440	0.0350820273
3933.13469	0.0350827537
3931.70498	0.0350967310
3930.27527	0.0351304114
3928.84556	0.0351724848
3927.41585	0.0352041498
3925.98613	0.0352132730
3924.55642	0.0352009758
3923.12671	0.0351762474
3921.69700	0.0351512358
3920.26729	0.0351384394
3918.83758	0.0351491868
3917.40787	0.0351912640
3915.97816	0.0352642834
3914.54845	0.0353573635
3913.11874	0.0354516692
3911.68903	0.0355238058
3910.25931	0.0355502144
3908.82960	0.0355121754
3907.39989	0.0354035050
3905.97018	0.0352417380
3904.54047	0.0350759625
3903.11076	0.0349782296
3901.68105	0.0350058377
3900.25134	0.0351567678
3898.82163	0.0353674144
3897.39192	0.0355600454
3895.96221	0.0356846936
3894.53249	0.0357335955
3893.10278	0.0357344374
3891.67307	0.0357333981
3890.24336	0.0357651040
3888.81365	0.0358322002
3887.38394	0.0359078869
3885.95423	0.0359626897
3884.52452	0.0359868184
3883.09481	0.0359975882
3881.66510	0.0360223390
3880.23539	0.0360738374
3878.80567	0.0361371599
3877.37596	0.0361789912
3875.94625	0.0361703262
3874.51654	0.0361053720
3873.08683	0.0360090062
3871.65712	0.0359267816
3870.22741	0.0358961597
3868.79770	0.0359192751
3867.36799	0.0359707028
3865.93828	0.0360267833
3864.50857	0.0360833742
3863.07885	0.0361487754
3861.64914	0.0362218171
3860.21943	0.0362816975
3858.78972	0.0362943336
3857.36001	0.0362314396
3855.93030	0.0361048654
3854.50059	0.0360073745
3853.07088	0.0360844433
3851.64117	0.0363832712
3850.21146	0.0367870741
3848.78175	0.0371471457
3847.35203	0.0373831987
3845.92232	0.0374790467
3844.49261	0.0374555960
3843.06290	0.0373570435
3841.63319	0.0372426361
3840.20348	0.0371730067
3838.77377	0.0371844247
3837.34406	0.0372677073
3835.91435	0.0373776965
3834.48464	0.0374747850
3833.05493	0.0375527889
3831.62521	0.0376296490
3830.19550	0.0377188325
3828.76579	0.0378125273
3827.33608	0.0378876552
3825.90637	0.0379275382
3824.47666	0.0379344299
3823.04695	0.0379298851
3821.61724	0.0379428230
3820.18753	0.0379954241
3818.75782	0.0380952246
3817.32811	0.0382361747
3815.89839	0.0384021439
3814.46868	0.0385698155
3813.03897	0.0387124494
3811.60926	0.0388042629
3810.17955	0.0388264544
3808.74984	0.0387754738
3807.32013	0.0386736803
3805.89042	0.0385695882
3804.46071	0.0385193191
3803.03100	0.0385623761
3801.60129	0.0387093909
3800.17157	0.0389465764
3798.74186	0.0392428190
3797.31215	0.0395570733
3795.88244	0.0398489647
3794.45273	0.0400928482
3793.02302	0.0402823873
3791.59331	0.0404253006
3790.16360	0.0405342728
3788.73389	0.0406195931
3787.30418	0.0406925641
3785.87447	0.0407663994
3784.44475	0.0408507399
3783.01504	0.0409442298
3781.58533	0.0410367735
3780.15562	0.0411214232
3778.72591	0.0412020199
3777.29620	0.0412838571
3775.86649	0.0413627177
3774.43678	0.0414259881
3773.00707	0.0414652601
3771.57736	0.0414881296
3770.14765	0.0415183492
3768.71794	0.0415842049
3767.28822	0.0417005904
3765.85851	0.0418589674
3764.42880	0.0420305431
3762.99909	0.0421797968
3761.56938	0.0422818735
3760.13967	0.0423351489
3758.70996	0.0423549823
3757.28025	0.0423552655
3755.85054	0.0423324667
3754.42083	0.0422799066
3752.99112	0.0422147699
3751.56140	0.0421842448
3750.13169	0.0422297195
3748.70198	0.0423509590
3747.27227	0.0425315537
3745.84256	0.0427874885
3744.41285	0.0431502014
3742.98314	0.0435992964
3741.55343	0.0440492555
3740.12372	0.0444077514
3738.69401	0.0446302816
3737.26430	0.0447309576
3735.83458	0.0447734259
3734.40487	0.0448461808
3732.97516	0.0450115055
3731.54545	0.0452699400
3730.11574	0.0455806777
3728.68603	0.0458986051
3727.25632	0.0461980179
3725.82661	0.0464828275
3724.39690	0.0467795320
3722.96719	0.0471126437
3721.53748	0.0474778637
3720.10776	0.0478411354
3718.67805	0.0481614135
3717.24834	0.0484100953
3715.81863	0.0485808365
3714.38892	0.0487035140
3712.95921	0.0488567315
3711.52950	0.0491414927
3710.09979	0.0495952368
3708.67008	0.0501442738
3707.24037	0.0506808273
3705.81066	0.0511624776
3704.38094	0.0516212247
3702.95123	0.0521157980
3701.52152	0.0526775010
3700.09181	0.0532911159
3698.66210	0.0539144203
3697.23239	0.0545127653
3695.80268	0.0550755225
3694.37297	0.0556233563
3692.94326	0.0562122166
3691.51355	0.0569194630
3690.08384	0.0577846430
3688.65412	0.0587456599
3687.22441	0.0596765243
3685.79470	0.0605004728
3684.36499	0.0612279139
3682.93528	0.0619071983
3681.50557	0.0625885054
3680.07586	0.0633295476
3678.64615	0.0642098859
3677.21644	0.0653046444
3675.78673	0.0666196868
3674.35702	0.0680772662
3672.92730	0.0696088970
3671.49759	0.0712294579
3670.06788	0.0729742721
3668.63817	0.0748015493
3667.20846	0.0766064376
3665.77875	0.0783183724
3664.34904	0.0799486935
3662.91933	0.0815586820
3661.48962	0.0832096040
3660.05991	0.0849404261
3658.63020	0.0867608562
3657.20048	0.0886400491
3655.77077	0.0905126557
3654.34106	0.0923405364
3652.91135	0.0942054987
3651.48164	0.0963380411
3650.05193	0.0989685729
3648.62222	0.1020253152
3647.19251	0.1050735489
3645.76280	0.1077389419
3644.33309	0.1100155264
3642.90338	0.1121139899
3641.47366	0.1142239571
3640.04395	0.1164218560
3638.61424	0.1186858118
3637.18453	0.1209439784
3635.75482	0.1231286675
3634.32511	0.1252363473
3632.89540	0.1273835748
3631.46569	0.1298012584
3630.03598	0.1326704025
3628.60627	0.1358512938
3627.17656	0.1388891935
3625.74684	0.1414386034
3624.31713	0.1435447931
3622.88742	0.1455028206
3621.45771	0.1476115584
3620.02800	0.1500135809
3618.59829	0.1526403278
3617.16858	0.1552902758
3615.73887	0.1577993333
3614.30916	0.1601512879
3612.87945	0.1624558717
3611.44974	0.1648537517
3610.02003	0.1674050242
3608.59031	0.1700247079
3607.16060	0.1725414097
3605.73089	0.1748394519
3604.30118	0.1769387722
3602.87147	0.1789501011
3601.44176	0.1809862554
3600.01205	0.1831178069
3598.58234	0.1853726953
3597.15263	0.1877340525
3595.72292	0.1901230067
3594.29321	0.1924235076
3592.86349	0.1945741326
3591.43378	0.1966516674
3590.00407	0.1988443732
3588.57436	0.2013038397
3587.14465	0.2039858103
3585.71494	0.2066623271
3584.28523	0.2091241926
3582.85552	0.2113397270
3581.42581	0.2134190351
3579.99610	0.2154980153
3578.56639	0.2176558822
3577.13667	0.2198812515
3575.70696	0.2220814675
3574.27725	0.2241434455
3572.84754	0.2260300517
3571.41783	0.2278463095
3569.98812	0.2298170775
3568.55841	0.2321511358
3567.12870	0.2348584086
3565.69899	0.2376975119
3564.26928	0.2403721809
3562.83957	0.2427566648
3561.40985	0.2449074686
3559.98014	0.2469382882
3558.55043	0.2489417940
3557.12072	0.2509796917
3555.69101	0.2530902624
3554.26130	0.2552754283
3552.83159	0.2574943900
3551.40188	0.2596939206
3549.97217	0.2618593276
3548.54246	0.2640319765
3547.11275	0.2662727535
3545.68303	0.2686006725
3544.25332	0.2709629238
3542.82361	0.2732673585
3541.39390	0.2754460871
3539.96419	0.2774993479
3538.53448	0.2794872820
3537.10477	0.2814805806
3535.67506	0.2835070491
3534.24535	0.2855398655
3532.81564	0.2875441015
3531.38593	0.2895289361
3529.95621	0.2915472090
3528.52650	0.2936421335
3527.09679	0.2957994640
3525.66708	0.2979622483
3524.23737	0.3000847995
3522.80766	0.3021573126
3521.37795	0.3041833639
3519.94824	0.3061535060
3518.51853	0.3080527186
3517.08882	0.3098837137
3515.65911	0.3116705716
3514.22939	0.3134406805
3512.79968	0.3152092397
3511.36997	0.3169786036
3509.94026	0.3187396824
3508.51055	0.3204737008
3507.08084	0.3221655190
3505.65113	0.3238278925
3504.22142	0.3255029917
3502.79171	0.3272230327
3501.36200	0.3289670348
3499.93229	0.3306705952
3498.50257	0.3322885931
3497.07286	0.3338380456
3495.64315	0.3353728652
3494.21344	0.3369230032
3492.78373	0.3384719789
3491.35402	0.3399873078
3489.92431	0.3414582014
3488.49460	0.3428924680
3487.06489	0.3442937136
3485.63518	0.3456583917
3484.20547	0.3469952345
3482.77575	0.3483288884
3481.34604	0.3496756852
3479.91633	0.3510261178
3478.48662	0.3523575366
3477.05691	0.3536540568
3475.62720	0.3548990786
3474.19749	0.3560563028
3472.76778	0.3570842743
3471.33807	0.3579855263
3469.90836	0.3588337004
3468.47865	0.3597338200
3467.04893	0.3607477844
3465.61922	0.3618588746
3464.18951	0.3629997075
3462.75980	0.3641071618
3461.33009	0.3651531041
3459.90038	0.3661421835
3458.47067	0.3670953810
3457.04096	0.3680284023
3455.61125	0.3689302206
3454.18154	0.3697541058
3452.75183	0.3704493940
3451.32212	0.3710147142
3449.89240	0.3715194762
3448.46269	0.3720616698
3447.03298	0.3726920784
3445.60327	0.3733801544
3444.17356	0.3740493357
3442.74385	0.3746361732
3441.31414	0.3751177788
3439.88443	0.3755011559
3438.45472	0.3758101761
3437.02501	0.3760834932
3435.59530	0.3763628900
3434.16558	0.3766715527
3432.73587	0.3770033419
3431.30616	0.3773383498
3429.87645	0.3776667118
3428.44674	0.3779915571
3427.01703	0.3783127367
3425.58732	0.3786177635
3424.15761	0.3788955212
3422.72790	0.3791474104
3421.29819	0.3793774545
3419.86848	0.3795728981
3418.43876	0.3797034621
3417.00905	0.3797458410
3415.57934	0.3797024190
3414.14963	0.3795960844
3412.71992	0.3794571161
3411.29021	0.3793145120
3409.86050	0.3791921139
3408.43079	0.3790942729
3407.00108	0.3789946437
3405.57137	0.3788478374
3404.14166	0.3786248565
3402.71194	0.3783382475
3401.28223	0.3780291677
3399.85252	0.3777307272
3398.42281	0.3774476945
3396.99310	0.3771691024
3395.56339	0.3768892586
3394.13368	0.3766081333
3392.70397	0.3763169348
3391.27426	0.3759936094
3389.84455	0.3756183386
3388.41484	0.3751938343
3386.98512	0.3747463822
3385.55541	0.3743101358
3384.12570	0.3739066124
3382.69599	0.3735339940
3381.26628	0.3731696010
3379.83657	0.3727815151
3378.40686	0.3723474443
3376.97715	0.3718661666
3375.54744	0.3713543415
3374.11773	0.3708295822
3372.68802	0.3703004122
3371.25830	0.3697680235
3369.82859	0.3692343235
3368.39888	0.3686999977
3366.96917	0.3681571484
3365.53946	0.3675876856
3364.10975	0.3669769168
3362.68004	0.3663269579
3361.25033	0.3656542003
3359.82062	0.3649773896
3358.39091	0.3643120527
3356.96120	0.3636741042
3355.53148	0.3630796075
3354.10177	0.3625291586
3352.67206	0.3619961739
3351.24235	0.3614379764
3349.81264	0.3608281016
3348.38293	0.3601811528
3346.95322	0.3595449030
3345.52351	0.3589645922
3344.09380	0.3584499061
3342.66409	0.3579684496
3341.23438	0.3574675918
3339.80466	0.3569053710
3338.37495	0.3562726974
3336.94524	0.3555968702
3335.51553	0.3549240828
3334.08582	0.3542960882
3332.65611	0.3537332118
3331.22640	0.3532345891
3329.79669	0.3527864814
3328.36698	0.3523716331
3326.93727	0.3519710898
3325.50756	0.3515675366
3324.07784	0.3511528373
3322.64813	0.3507336974
3321.21842	0.3503276408
3319.78871	0.3499511778
3318.35900	0.3496151865
3316.92929	0.3493289351
3315.49958	0.3491049409
3314.06987	0.3489547074
3312.64016	0.3488736451
3311.21045	0.3488315046
3309.78074	0.3487756848
3308.35102	0.3486477435
3306.92131	0.3484028876
3305.49160	0.3480272293
3304.06189	0.3475486934
3302.63218	0.3470326066
3301.20247	0.3465569019
3299.77276	0.3461719453
3298.34305	0.3458729982
3296.91334	0.3456040025
3295.48363	0.3452894390
3294.05392	0.3448710442
3292.62421	0.3443279564
3291.19449	0.3436766565
3289.76478	0.3429556191
3288.33507	0.3422063291
3286.90536	0.3414538503
3285.47565	0.3406935334
3284.04594	0.3398971558
3282.61623	0.3390349448
3281.18652	0.3381023407
3279.75681	0.3371273875
3278.32710	0.3361528516
3276.89739	0.3352038860
3275.46767	0.3342631161
3274.03796	0.3332726955
3272.60825	0.3321641982
3271.17854	0.3308947384
3269.74883	0.3294697404
3268.31912	0.3279370070
3266.88941	0.3263596296
3265.45970	0.3247904480
3264.02999	0.3232596815
3262.60028	0.3217794001
3261.17057	0.3203487992
3259.74085	0.3189530075
3258.31114	0.3175623417
3256.88143	0.3161441088
3255.45172	0.3146857619
3254.02201	0.3132089376
3252.59230	0.3117568791
3251.16259	0.3103635311
3249.73288	0.3090314269
3248.30317	0.3077371418
3246.87346	0.3064543903
3245.44375	0.3051725924
3244.01403	0.3038953543
3242.58432	0.3026300073
3241.15461	0.3013820052
3239.72490	0.3001593947
3238.29519	0.2989725471
3236.86548	0.2978255153
3235.43577	0.2967056632
3234.00606	0.2955854535
3232.57635	0.2944411039
3231.14664	0.2932711244
3229.71693	0.2920991182
3228.28721	0.2909568846
3226.85750	0.2898615301
3225.42779	0.2888054252
3223.99808	0.2877631485
3222.56837	0.2867103219
3221.13866	0.2856374085
3219.70895	0.2845506370
3218.27924	0.2834608257
3216.84953	0.2823720276
3215.41982	0.2812793851
3213.99011	0.2801777124
3212.56039	0.2790719271
3211.13068	0.2779780030
3209.70097	0.2769129276
3208.27126	0.2758795917
3206.84155	0.2748602629
3205.41184	0.2738230526
3203.98213	0.2727373838
3202.55242	0.2715908885
3201.12271	0.2703945339
3199.69300	0.2691771388
3198.26329	0.2679699659
3196.83357	0.2667926848
3195.40386	0.2656473815
3193.97415	0.2645238042
3192.54444	0.2634088993
3191.11473	0.2622923255
3189.68502	0.2611662745
3188.25531	0.2600240707
3186.82560	0.2588586509
3185.39589	0.2576664984
3183.96618	0.2564506829
3182.53647	0.2552218437
3181.10675	0.2539948225
3179.67704	0.2527834475
3178.24733	0.2515946329
3176.81762	0.2504274249
3175.38791	0.2492727786
3173.95820	0.2481200099
3172.52849	0.2469588965
3171.09878	0.2457810938
3169.66907	0.2445812523
3168.23936	0.2433594167
3166.80965	0.2421246022
3165.37993	0.2408929616
3163.95022	0.2396804690
3162.52051	0.2384957224
3161.09080	0.2373373955
3159.66109	0.2361997366
3158.23138	0.2350767851
3156.80167	0.2339625359
3155.37196	0.2328480035
3153.94225	0.2317230701
3152.51254	0.2305816412
3151.08283	0.2294269651
3149.65311	0.2282716632
3148.22340	0.2271327525
3146.79369	0.2260262668
3145.36398	0.2249633819
3143.93427	0.2239461988
3142.50456	0.2229643017
3141.07485	0.2219945788
3139.64514	0.2210104465
3138.21543	0.2199960649
3136.78572	0.2189528793
3135.35601	0.2178973705
3133.92629	0.2168461531
3132.49658	0.2158055753
3131.06687	0.2147721350
3129.63716	0.2137444317
3128.20745	0.2127330750
3126.77774	0.2117600739
3125.34803	0.2108466178
3123.91832	0.2099983841
3122.48861	0.2091993988
3121.05890	0.2084174901
3119.62919	0.2076175362
3118.19948	0.2067759186
3116.76976	0.2058892101
3115.34005	0.2049744427
3113.91034	0.2040580660
3112.48063	0.2031599432
3111.05092	0.2022818774
3109.62121	0.2014112473
3108.19150	0.2005390376
3106.76179	0.1996759921
3105.33208	0.1988485903
3103.90237	0.1980773956
3102.47266	0.1973564625
3101.04294	0.1966541857
3099.61323	0.1959389001
3098.18352	0.1952026486
3096.75381	0.1944644749
3095.32410	0.1937506795
3093.89439	0.1930747479
3092.46468	0.1924322248
3091.03497	0.1918101609
3089.60526	0.1911975443
3088.17555	0.1905857623
3086.74584	0.1899643838
3085.31612	0.1893208921
3083.88641	0.1886443645
3082.45670	0.1879291683
3081.02699	0.1871734113
3079.59728	0.1863760501
3078.16757	0.1855406016
3076.73786	0.1846802831
3075.30815	0.1838203818
3073.87844	0.1829908788
3072.44873	0.1822106093
3071.01902	0.1814747602
3069.58930	0.1807549000
3068.15959	0.1800116599
3066.72988	0.1792134196
3065.30017	0.1783496588
3063.87046	0.1774330735
3062.44075	0.1764912903
3061.01104	0.1755537242
3059.58133	0.1746409684
3058.15162	0.1737601608
3056.72191	0.1729048193
3055.29220	0.1720618904
3053.86248	0.1712182015
3052.43277	0.1703685373
3051.00306	0.1695181131
3049.57335	0.1686796546
3048.14364	0.1678628623
3046.71393	0.1670650840
3045.28422	0.1662679464
3043.85451	0.1654449850
3042.42480	0.1645794064
3040.99509	0.1636775583
3039.56538	0.1627681851
3038.13566	0.1618838459
3036.70595	0.1610365063
3035.27624	0.1602095664
3033.84653	0.1593722850
3032.41682	0.1585058272
3030.98711	0.1576177478
3029.55740	0.1567332298
3028.12769	0.1558738500
3026.69798	0.1550448090
3025.26827	0.1542391628
3023.83856	0.1534527093
3022.40884	0.1526907682
3020.97913	0.1519622356
3019.54942	0.1512671858
3018.11971	0.1505908221
3016.69000	0.1499090493
3015.26029	0.1491997242
3013.83058	0.1484537721
3012.40087	0.1476787925
3010.97116	0.1468972266
3009.54145	0.1461380571
3008.11174	0.1454274505
3006.68202	0.1447804570
3005.25231	0.1442001164
3003.82260	0.1436805576
3002.39289	0.1432139575
3000.96318	0.1427951306
2999.53347	0.1424214989
2998.10376	0.1420899332
2996.67405	0.1417942494
2995.24434	0.1415240020
2993.81463	0.1412674040
2992.38492	0.1410165131
2990.95520	0.1407733560
2989.52549	0.1405539364
2988.09578	0.1403853148
2986.66607	0.1402953863
2985.23636	0.1402984858
2983.80665	0.1403852850
2982.37694	0.1405234635
2980.94723	0.1406730264
2979.51752	0.1408060044
2978.08781	0.1409188211
2976.65810	0.1410297304
2975.22838	0.1411632150
2973.79867	0.1413332522
2972.36896	0.1415359825
2970.93925	0.1417543888
2969.50954	0.1419666111
2968.07983	0.1421514750
2966.65012	0.1422883868
2965.22041	0.1423546970
2963.79070	0.1423273236
2962.36099	0.1421869993
2960.93128	0.1419226527
2959.50157	0.1415304542
2958.07185	0.1410099268
2956.64214	0.1403632909
2955.21243	0.1396011412
2953.78272	0.1387523562
2952.35301	0.1378705800
2950.92330	0.1370247006
2949.49359	0.1362774968
2948.06388	0.1356627047
2946.63417	0.1351784766
2945.20446	0.1348000914
2943.77475	0.1345027387
2942.34503	0.1342752874
2940.91532	0.1341172606
2939.48561	0.1340248734
2938.05590	0.1339836717
2936.62619	0.1339716911
2935.19648	0.1339675039
2933.76677	0.1339527071
2932.33706	0.1339072138
2930.90735	0.1338055730
2929.47764	0.1336206645
2928.04793	0.1333336085
2926.61821	0.1329393685
2925.18850	0.1324424744
2923.75879	0.1318479031
2922.32908	0.1311558336
2920.89937	0.1303616017
2919.46966	0.1294599921
2918.03995	0.1284477264
2916.61024	0.1273235381
2915.18053	0.1260928512
2913.75082	0.1247753724
2912.32111	0.1234119087
2910.89139	0.1220604926
2909.46168	0.1207819730
2908.03197	0.1196177676
2906.60226	0.1185783148
2905.17255	0.1176473275
2903.74284	0.1167997271
2902.31313	0.1160180420
2900.88342	0.1152949482
2899.45371	0.1146229357
2898.02400	0.1139863506
2896.59429	0.1133656576
2895.16457	0.1127518564
2893.73486	0.1121564507
2892.30515	0.1116044298
2890.87544	0.1111166924
2889.44573	0.1106968746
2888.01602	0.1103346571
2886.58631	0.1100193635
2885.15660	0.1097508818
2883.72689	0.1095385328
2882.29718	0.1093904823
2880.86747	0.1093030795
2879.43775	0.1092553362
2878.00804	0.1092085987
2876.57833	0.1091119796
2875.14862	0.1089119464
2873.71891	0.1085693315
2872.28920	0.1080727056
2870.85949	0.1074442267
2869.42978	0.1067311466
2868.00007	0.1059912518
2866.57036	0.1052779555
2865.14065	0.1046325490
2863.71093	0.1040791795
2862.28122	0.1036243662
2860.85151	0.1032566354
2859.42180	0.1029485017
2857.99209	0.1026616395
2856.56238	0.1023527756
2855.13267	0.1019807234
2853.70296	0.1015093252
2852.27325	0.1009103507
2850.84354	0.1001676172
2849.41383	0.0992842764
2847.98411	0.0982913077
2846.55440	0.0972488895
2845.12469	0.0962332934
2843.69498	0.0953109041
2842.26527	0.0945136324
2840.83556	0.0938304588
2839.40585	0.0932224244
2837.97614	0.0926489532
2836.54643	0.0920883045
2835.11672	0.0915406719
2833.68701	0.0910178050
2832.25729	0.0905310512
2830.82758	0.0900843143
2829.39787	0.0896762460
2827.96816	0.0893019438
2826.53845	0.0889560506
2825.10874	0.0886336714
2823.67903	0.0883298963
2822.24932	0.0880378112
2820.81961	0.0877472609
2819.38990	0.0874483138
2817.96019	0.0871384740
2816.53047	0.0868266374
2815.10076	0.0865285844
2813.67105	0.0862546265
2812.24134	0.0859989598
2810.81163	0.0857413635
2809.38192	0.0854593962
2807.95221	0.0851461515
2806.52250	0.0848169550
2805.09279	0.0845029131
2803.66308	0.0842331946
2802.23337	0.0840149894
2800.80366	0.0838269442
2799.37394	0.0836306587
2797.94423	0.0833940953
2796.51452	0.0831130221
2795.08481	0.0828101411
2793.65510	0.0825150460
2792.22539	0.0822392032
2790.79568	0.0819694400
2789.36597	0.0816825703
2787.93626	0.0813669115
2786.50655	0.0810322389
2785.07684	0.0807013810
2783.64712	0.0803950652
2782.21741	0.0801246092
2780.78770	0.0798918828
2779.35799	0.0796929225
2777.92828	0.0795170516
2776.49857	0.0793464780
2775.06886	0.0791600123
2773.63915	0.0789431930
2772.20944	0.0786945522
2770.77973	0.0784251541
2769.35002	0.0781505331
2767.92030	0.0778815001
2766.49059	0.0776219890
2765.06088	0.0773706064
2763.63117	0.0771256760
2762.20146	0.0768870041
2760.77175	0.0766555965
2759.34204	0.0764326528
2757.91233	0.0762197226
2756.48262	0.0760198757
2755.05291	0.0758369192
2753.62320	0.0756717920
2752.19348	0.0755163059
2750.76377	0.0753529295
2749.33406	0.0751621053
2747.90435	0.0749329701
2746.47464	0.0746699497
2745.04493	0.0743889362
2743.61522	0.0741079822
2742.18551	0.0738380998
2740.75580	0.0735819936
2739.32609	0.0733369887
2737.89638	0.0730995610
2736.46666	0.0728675053
2735.03695	0.0726413503
2733.60724	0.0724249482
2732.17753	0.0722219497
2730.74782	0.0720324889
2729.31811	0.0718488246
2727.88840	0.0716591626
2726.45869	0.0714546591
2725.02898	0.0712347329
2723.59927	0.0710068345
2722.16956	0.0707792118
2720.73984	0.0705552995
2719.31013	0.0703328103
2717.88042	0.0701088235
2716.45071	0.0698842853
2715.02100	0.0696646273
2713.59129	0.0694566593
2712.16158	0.0692637637
2710.73187	0.0690829903
2709.30216	0.0689066127
2707.87245	0.0687258691
2706.44274	0.0685353503
2705.01302	0.0683366805
2703.58331	0.0681378841
2702.15360	0.0679484159
2700.72389	0.0677740052
2699.29418	0.0676133037
2697.86447	0.0674615502
2696.43476	0.0673156306
2695.00505	0.0671778470
2693.57534	0.0670506284
2692.14563	0.0669315308
2690.71592	0.0668110251
2689.28620	0.0666796863
2687.85649	0.0665377676
2686.42678	0.0663969144
2684.99707	0.0662702546
2683.56736	0.0661605969
2682.13765	0.0660551339
2680.70794	0.0659346879
2679.27823	0.0657869801
2677.84852	0.0656137988
2676.41881	0.0654271990
2674.98910	0.0652395412
2673.55938	0.0650578514
2672.12967	0.0648833066
2670.69996	0.0647152886
2669.27025	0.0645539761
2667.84054	0.0644017011
2666.41083	0.0642619282
2664.98112	0.0641381666
2663.55141	0.0640315115
2662.12170	0.0639372692
2660.69199	0.0638443902
2659.26228	0.0637392476
2657.83256	0.0636131167
2656.40285	0.0634694099
2654.97314	0.0633213148
2653.54343	0.0631833896
2652.11372	0.0630604774
2650.68401	0.0629463047
2649.25430	0.0628312007
2647.82459	0.0627123043
2646.39488	0.0625972673
2644.96517	0.0624979809
2643.53546	0.0624198802
2642.10575	0.0623558648
2640.67603	0.0622918941
2639.24632	0.0622164868
2637.81661	0.0621263087
2636.38690	0.0620253980
2634.95719	0.0619206354
2633.52748	0.0618167296
2632.09777	0.0617162213
2630.66806	0.0616212822
2629.23835	0.0615346283
2627.80864	0.0614581034
2626.37893	0.0613901168
2624.94921	0.0613251515
2623.51950	0.0612558722
2622.08979	0.0611787997
2620.66008	0.0610961057
2619.23037	0.0610148907
2617.80066	0.0609411038
2616.37095	0.0608756989
2614.94124	0.0608143248
2613.51153	0.0607501008
2612.08182	0.0606776401
2610.65211	0.0605944805
2609.22239	0.0605004728
2607.79268	0.0603981242
2606.36297	0.0602934547
2604.93326	0.0601953492
2603.50355	0.0601131432
2602.07384	0.0600527376
2600.64413	0.0600146018
2599.21442	0.0599943623
2597.78471	0.0599847622
2596.35500	0.0599777773
2594.92529	0.0599650294
2593.49557	0.0599394105
2592.06586	0.0598974228
2590.63615	0.0598417409
2589.20644	0.0597809888
2587.77673	0.0597258583
2586.34702	0.0596833266
2584.91731	0.0596522912
2583.48760	0.0596247651
2582.05789	0.0595920980
2580.62818	0.0595521331
2579.19847	0.0595118776
2577.76875	0.0594828427
2576.33904	0.0594735816
2574.90933	0.0594844744
2573.47962	0.0595073923
2572.04991	0.0595306680
2570.62020	0.0595441498
2569.19049	0.0595411807
2567.76078	0.0595192388
2566.33107	0.0594796650
2564.90136	0.0594274215
2563.47165	0.0593712702
2562.04193	0.0593227185
2560.61222	0.0592943802
2559.18251	0.0592961609
2557.75280	0.0593307018
2556.32309	0.0593905002
2554.89338	0.0594587401
2553.46367	0.0595170408
2552.03396	0.0595545694
2550.60425	0.0595730059
2549.17454	0.0595847964
2547.74483	0.0596034415
2546.31511	0.0596362278
2544.88540	0.0596823767
2543.45569	0.0597374141
2542.02598	0.0597982779
2540.59627	0.0598635189
2539.16656	0.0599303767
2537.73685	0.0599918962
2536.30714	0.0600394793
2534.87743	0.0600685515
2533.44772	0.0600834154
2532.01801	0.0600970574
2530.58829	0.0601243787
2529.15858	0.0601734668
2527.72887	0.0602412336
2526.29916	0.0603148080
2524.86945	0.0603794754
2523.43974	0.0604256727
2522.01003	0.0604537278
2520.58032	0.0604711063
2519.15061	0.0604880340
2517.72090	0.0605119877
2516.29119	0.0605469532
2514.86147	0.0605930500
2513.43176	0.0606469214
2512.00205	0.0607023798
2510.57234	0.0607511736
2509.14263	0.0607864559
2507.71292	0.0608073883
2506.28321	0.0608211756
2504.85350	0.0608388036
2503.42379	0.0608697757
2501.99408	0.0609169193
2500.56437	0.0609775037
2499.13465	0.0610477217
2497.70494	0.0611247420
2496.27523	0.0612063073
2494.84552	0.0612870529
2493.41581	0.0613585413
2491.98610	0.0614119098
2490.55639	0.0614449196
2489.12668	0.0614650212
2487.69697	0.0614866428
2486.26726	0.0615231767
2484.83755	0.0615797304
2483.40784	0.0616507307
2481.97812	0.0617250539
2480.54841	0.0617930628
2479.11870	0.0618524849
2477.68899	0.0619069301
2476.25928	0.0619608164
2474.82957	0.0620140545
2473.39986	0.0620627850
2471.97015	0.0621027425
2470.54044	0.0621344335
2469.11073	0.0621641800
2467.68102	0.0622011609
2466.25130	0.0622525439
2464.82159	0.0623195022
2463.39188	0.0623969883
2461.96217	0.0624760129
2460.53246	0.0625471547
2459.10275	0.0626035780
2457.67304	0.0626428351
2456.24333	0.0626679808
2454.81362	0.0626858696
2453.38391	0.0627037212
2451.95420	0.0627263337
2450.52448	0.0627550110
2449.09477	0.0627891719
2447.66506	0.0628276095
2446.23535	0.0628689602
2444.80564	0.0629108176
2443.37593	0.0629495010
2441.94622	0.0629825443
2440.51651	0.0630106404
2439.08680	0.0630373359
2437.65709	0.0630652606
2436.22738	0.0630938187
2434.79766	0.0631207898
2433.36795	0.0631457865
2431.93824	0.0631720424
2430.50853	0.0632020757
2429.07882	0.0632328838
2427.64911	0.0632562712
2426.21940	0.0632646829
2424.78969	0.0632582754
2423.35998	0.0632469282
2421.93027	0.0632440224
2420.50056	0.0632586926
2419.07084	0.0632899851
2417.64113	0.0633290708
2416.21142	0.0633653998
2414.78171	0.0633913726
2413.35200	0.0634053573
2411.92229	0.0634104833
2410.49258	0.0634119511
2409.06287	0.0634154230
2407.63316	0.0634247735
2406.20345	0.0634417906
2404.77374	0.0634653047
2403.34402	0.0634909794
2401.91431	0.0635115653
2400.48460	0.0635196865
2399.05489	0.0635116249
2397.62518	0.0634903535
2396.19547	0.0634648576
2394.76576	0.0634453818
2393.33605	0.0634378344
2391.90634	0.0634415150
2390.47663	0.0634490401
2389.04692	0.0634493083
2387.61720	0.0634299219
2386.18749	0.0633796006
2384.75778	0.0632922649
2383.32807	0.0631700978
2381.89836	0.0630226731
2380.46865	0.0628634244
2379.03894	0.0627003387
2377.60923	0.0625313446
2376.17952	0.0623452291
2374.74981	0.0621306077
2373.32010	0.0618832894
2371.89038	0.0616095290
2370.46067	0.0613210648
2369.03096	0.0610269532
2367.60125	0.0607306026
2366.17154	0.0604328439
2364.74183	0.0601428710
2363.31212	0.0598894879
2361.88241	0.0597229786
2360.45270	0.0596951172
2359.02299	0.0598278679
2357.59328	0.0600978918
2356.16356	0.0604477189
2354.73385	0.0608129874
2353.30414	0.0611434542
2351.87443	0.0614088699
2350.44472	0.0615919307
2349.01501	0.0616830699
2347.58530	0.0616783276
2346.15559	0.0615837872
2344.72588	0.0614240170
2343.29617	0.0612426400
2341.86646	0.0610862151
2340.43674	0.0609771460
2339.00703	0.0609084889
2337.57732	0.0608635210
2336.14761	0.0608356483
2334.71790	0.0608313307
2333.28819	0.0608615838
2331.85848	0.0609297268
2330.42877	0.0610247217
2328.99906	0.0611254573
2327.56935	0.0612117909
2326.13964	0.0612796880
2324.70993	0.0613439605
2323.28021	0.0614308752
2321.85050	0.0615616217
2320.42079	0.0617366284
2318.99108	0.0619343072
2317.56137	0.0621243976
2316.13166	0.0622857958
2314.70195	0.0624159351
2313.27224	0.0625275150
2311.84253	0.0626357794
2310.41282	0.0627481341
2308.98311	0.0628605783
2307.55339	0.0629641041
2306.12368	0.0630519763
2304.69397	0.0631222874
2303.26426	0.0631767139
2301.83455	0.0632169843
2300.40484	0.0632447377
2298.97513	0.0632615685
2297.54542	0.0632708222
2296.11571	0.0632770211
2294.68600	0.0632841215
2293.25629	0.0632937923
2291.82657	0.0633058622
2290.39686	0.0633198768
2288.96715	0.0633370057
2287.53744	0.0633597672
2286.10773	0.0633882284
2284.67802	0.0634176731
2283.24831	0.0634402558
2281.81860	0.0634505376
2280.38889	0.0634498745
2278.95918	0.0634455010
2277.52947	0.0634447858
2276.09975	0.0634502023
2274.67004	0.0634593740
2273.24033	0.0634688661
2271.81062	0.0634769872
2270.38091	0.0634836107
2268.95120	0.0634885207
2267.52149	0.0634925067
2266.09178	0.0634969696
2264.66207	0.0635051206
2263.23236	0.0635192320
2261.80265	0.0635398775
2260.37293	0.0635653213
2258.94322	0.0635929182
2257.51351	0.0636181533
2256.08380	0.0636337399
2254.65409	0.0636324212
2253.22438	0.0636105090
2251.79467	0.0635730773
2250.36496	0.0635338873
2248.93525	0.0635086596
2247.50554	0.0635069758
2246.07583	0.0635269359
2244.64611	0.0635561198
2243.21640	0.0635804534
2241.78669	0.0635937601
2240.35698	0.0636013076
2238.92727	0.0636137798
2237.49756	0.0636387691
2236.06785	0.0636733621
2234.63814	0.0637079850
2233.20843	0.0637339428
2231.77872	0.0637493804
2230.34901	0.0637572631
2228.91929	0.0637593046
2227.48958	0.0637523755
2226.05987	0.0637319013
2224.63016	0.0636984780
2223.20045	0.0636609793
2221.77074	0.0636329576
2220.34103	0.0636250153
2218.91132	0.0636374503
2217.48161	0.0636613742
2216.05190	0.0636844486
2214.62219	0.0636986867
2213.19247	0.0637038127
2211.76276	0.0637036636
2210.33305	0.0637013540
2208.90334	0.0636972487
2207.47363	0.0636902377
2206.04392	0.0636804625
2204.61421	0.0636691079
2203.18450	0.0636557937
2201.75479	0.0636372417
2200.32508	0.0636109039
2198.89537	0.0635789856
2197.46565	0.0635494068
2196.03594	0.0635314584
2194.60623	0.0635300204
2193.17652	0.0635413453
2191.74681	0.0635543540
2190.31710	0.0635564178
2188.88739	0.0635394007
2187.45768	0.0635032356
2186.02797	0.0634552687
2184.59826	0.0634052977
2183.16855	0.0633606091
2181.73883	0.0633239225
2180.30912	0.0632942393
2178.87941	0.0632700175
2177.44970	0.0632513314
2176.01999	0.0632384792
2174.59028	0.0632302165
2173.16057	0.0632206947
2171.73086	0.0632001236
2170.30115	0.0631603971
2168.87144	0.0631001070
2167.44173	0.0630286857
2166.01202	0.0629618913
2164.58230	0.0629125834
2163.15259	0.0628832281
2161.72288	0.0628671348
2160.29317	0.0628551021
2158.86346	0.0628428683
2157.43375	0.0628309920
2156.00404	0.0628195331
2154.57433	0.0628047287
2153.14462	0.0627807975
2151.71491	0.0627445728
2150.28520	0.0626985505
2148.85548	0.0626484603
2147.42577	0.0625997186
2145.99606	0.0625540912
2144.56635	0.0625091940
2143.13664	0.0624606200
2141.70693	0.0624043681
2140.27722	0.0623388924
2138.84751	0.0622664951
2137.41780	0.0621919595
2135.98809	0.0621219464
2134.55838	0.0620623082
2133.12866	0.0620163232
2131.69895	0.0619815364
2130.26924	0.0619492941
2128.83953	0.0619079471
2127.40982	0.0618502460
2125.98011	0.0617786162
2124.55040	0.0617038086
2123.12069	0.0616371259
2121.69098	0.0615828596
2120.26127	0.0615385659
2118.83156	0.0615005381
2117.40184	0.0614694953
2115.97213	0.0614485890
2114.54242	0.0614371374
2113.11271	0.0614269115
2111.68300	0.0614045449
2110.25329	0.0613597929
2108.82358	0.0612909868
2107.39387	0.0612059496
2105.96416	0.0611173809
2104.53445	0.0610369965
2103.10474	0.0609713979
2101.67502	0.0609218925
2100.24531	0.0608862415
2098.81560	0.0608600937
2097.38589	0.0608373731
2095.95618	0.0608082525
2094.52647	0.0607605241
2093.09676	0.0606848150
2091.66705	0.0605812967
2090.23734	0.0604624748
2088.80763	0.0603476465
2087.37792	0.0602521151
2085.94820	0.0601797700
2084.51849	0.0601225048
2083.08878	0.0600675084
2081.65907	0.0600049123
2080.22936	0.0599304363
2078.79965	0.0598447435
2077.36994	0.0597513430
2075.94023	0.0596552603
2074.51052	0.0595622286
2073.08081	0.0594762824
2071.65110	0.0593963191
2070.22138	0.0593160689
2068.79167	0.0592277683
2067.36196	0.0591276214
2065.93225	0.0590186864
2064.50254	0.0589086860
2063.07283	0.0588043705
2061.64312	0.0587079078
2060.21341	0.0586175956
2058.78370	0.0585304126
2057.35399	0.0584444925
2055.92428	0.0583579354
2054.49456	0.0582682006
2053.06485	0.0581728593
2051.63514	0.0580713265
2050.20543	0.0579667129
2048.77572	0.0578641333
2047.34601	0.0577665158
2045.91630	0.0576716997
2044.48659	0.0575743914
2043.05688	0.0574705191
2041.62717	0.0573616736
2040.19746	0.0572537743
2038.76774	0.0571525134
2037.33803	0.0570593104
2035.90832	0.0569714345
2034.47861	0.0568853803
2033.04890	0.0567997545
2031.61919	0.0567150600
2030.18948	0.0566321500
2028.75977	0.0565515570
2027.33006	0.0564728677
2025.90035	0.0563943088
2024.47064	0.0563116372
2023.04092	0.0562192611
2021.61121	0.0561137944
2020.18150	0.0559975170
2018.75179	0.0558792651
2017.32208	0.0557693206
2015.89237	0.0556729957
2014.46266	0.0555871688
2013.03295	0.0555040352
2011.60324	0.0554187968
2010.17353	0.0553343147
2008.74382	0.0552588403
2007.31411	0.0551968738
2005.88439	0.0551431142
2004.45468	0.0550849847
2003.02497	0.0550118461
2001.59526	0.0549246520
2000.16555	0.0548344478
1998.73584	0.0547526032
1997.30613	0.0546808131
1995.87642	0.0546122938
1994.44671	0.0545395613
1993.01700	0.0544624664
1991.58729	0.0543873794
1990.15757	0.0543194935
1988.72786	0.0542575717
1987.29815	0.0541960113
1985.86844	0.0541307628
1984.43873	0.0540635027
1983.00902	0.0539997742
1981.57931	0.0539449304
1980.14960	0.0539010577
1978.71989	0.0538663305
1977.29018	0.0538375229
1975.86047	0.0538108610
1974.43075	0.0537825264
1973.00104	0.0537477508
1971.57133	0.0537019931
1970.14162	0.0536441430
1968.71191	0.0535799451
1967.28220	0.0535209700
1965.85249	0.0534778424
1964.42278	0.0534530431
1962.99307	0.0534415394
1961.56336	0.0534367673
1960.13365	0.0534367673
1958.70393	0.0534425899
1957.27422	0.0534528084
1955.84451	0.0534618571
1954.41480	0.0534625575
1952.98509	0.0534510538
1951.55538	0.0534279533
1950.12567	0.0533952266
1948.69596	0.0533545986
1947.26625	0.0533082969
1945.83654	0.0532608852
1944.40683	0.0532189533
1942.97711	0.0531881154
1941.54740	0.0531697981
1940.11769	0.0531603210
1938.68798	0.0531534143
1937.25827	0.0531444922
1935.82856	0.0531340465
1934.39885	0.0531269684
1932.96914	0.0531278737
1931.53943	0.0531346314
1930.10972	0.0531386398
1928.68001	0.0531306826
1927.25029	0.0531072505
1925.82058	0.0530717112
1924.39087	0.0530294739
1922.96116	0.0529844351
1921.53145	0.0529416241
1920.10174	0.0529109798
1918.67203	0.0529048964
1917.24232	0.0529291667
1915.81261	0.0529761873
1914.38290	0.0530297384
1912.95319	0.0530744605
1911.52347	0.0531039461
1910.09376	0.0531211458
1908.66405	0.0531354807
1907.23434	0.0531570427
1905.80463	0.0531904548
1904.37492	0.0532315373
1902.94521	0.0532711595
1901.51550	0.0533015057
1900.08579	0.0533209667
1898.65608	0.0533323251
1897.22637	0.0533381477
1895.79665	0.0533385873
1894.36694	0.0533343740
1892.93723	0.0533285774
1891.50752	0.0533269383
1890.07781	0.0533347838
1888.64810	0.0533566773
1887.21839	0.0533955470
1885.78868	0.0534507893
1884.35897	0.0535142943
1882.92926	0.0535732992
1881.49955	0.0536193661
1880.06983	0.0536544807
1878.64012	0.0536869951
1877.21041	0.0537206531
1875.78070	0.0537481606
1874.35099	0.0537573323
1872.92128	0.0537430048
1871.49157	0.0537138581
1870.06186	0.0536911823
1868.63215	0.0536993258
1867.20244	0.0537519418
1865.77273	0.0538430624
1864.34301	0.0539516136
1862.91330	0.0540554710
1861.48359	0.0541444868
1860.05388	0.0542233139
1858.62417	0.0543029495
1857.19446	0.0543877594
1855.76475	0.0544721186
1854.33504	0.0545476303
1852.90533	0.0546129681
1851.47562	0.0546712726
1850.04591	0.0547213592
1848.61619	0.0547575057
1847.18648	0.0547799431
1845.75677	0.0548068136
1844.32706	0.0548659638
1842.89735	0.0549707748
1841.46764	0.0551074073
1840.03793	0.0552502871
1838.60822	0.0553823337
1837.17851	0.0554978289
1835.74880	0.0555955842
1834.31909	0.0556737036
1832.88938	0.0557320304
1831.45966	0.0557759441
1830.02995	0.0558166504
1828.60024	0.0558676682
1827.17053	0.0559409484
1825.74082	0.0560426340
1824.31111	0.0561697930
1822.88140	0.0563114919
1821.45169	0.0564566217
1820.02198	0.0566005073
1818.59227	0.0567445867
1817.16256	0.0568887442
1815.73284	0.0570272207
1814.30313	0.0571547300
1812.87342	0.0572759248
1811.44371	0.0574055165
1810.01400	0.0575555079
1808.58429	0.0577236451
1807.15458	0.0578958690
1805.72487	0.0580579229
1804.29516	0.0582023412
1802.86545	0.0583299883
1801.43574	0.0584484302
1800.00602	0.0585712008
1798.57631	0.0587092116
1797.14660	0.0588620231
1795.71689	0.0590191036
1794.28718	0.0591765344
1792.85747	0.0593500510
1791.42776	0.0595657341
1789.99805	0.0598304830
1788.56834	0.0601215251
1787.13863	0.0604068711
1785.70892	0.0606697537
1784.27920	0.0609121546
1782.84949	0.0611439906
1781.41978	0.0613732412
1779.99007	0.0616032667
1778.56036	0.0618326664
1777.13065	0.0620549023
1775.70094	0.0622610003
1774.27123	0.0624553561
1772.84152	0.0626700446
1771.41181	0.0629522279
1769.98210	0.0633180812
1768.55238	0.0637332201
1767.12267	0.0641513690
1765.69296	0.0645550564
1764.26325	0.0649586394
1762.83354	0.0653865412
1761.40383	0.0658551529
1759.97412	0.0663688630
1758.54441	0.0669232011
1757.11470	0.0675045177
1755.68499	0.0680930689
1754.25528	0.0686794147
1752.82556	0.0692857727
1751.39585	0.0699630082
1749.96614	0.0707499608
1748.53643	0.0716256425
1747.10672	0.0725215971
1745.67701	0.0733865798
1744.24730	0.0742168948
1742.81759	0.0750313550
1741.38788	0.0758395419
1739.95817	0.0766408369
1738.52846	0.0774493068
1737.09874	0.0783059075
1735.66903	0.0792634264
1734.23932	0.0803502128
1732.80961	0.0815451518
1731.37990	0.0827972367
1729.95019	0.0840731934
1728.52048	0.0853748173
1727.09077	0.0867201760
1725.66106	0.0881193653
1724.23135	0.0895663425
1722.80164	0.0910530835
1721.37192	0.0926077217
1719.94221	0.0943291262
1718.51250	0.0963604748
1717.08279	0.0987391025
1715.65308	0.1012556031
1714.22337	0.1035971269
1712.79366	0.1056345925
1711.36395	0.1074578464
1709.93424	0.1092314348
1708.50453	0.1110863388
1707.07482	0.1130953059
1705.64510	0.1153035536
1704.21539	0.1177880988
1702.78568	0.1207018867
1701.35597	0.1242559180
1699.92626	0.1285894215
1698.49655	0.1335566640
1697.06684	0.1386791468
1695.63713	0.1434476376
1694.20742	0.1476324350
1692.77771	0.1512766182
1691.34800	0.1545453370
1689.91828	0.1576537341
1688.48857	0.1608928442
1687.05886	0.1646576077
1685.62915	0.1692990959
1684.19944	0.1747112423
1682.76973	0.1801546961
1681.34002	0.1849044710
1679.91031	0.1888854653
1678.48060	0.1924894005
1677.05089	0.1961297691
1675.62118	0.2000189424
1674.19147	0.2041718364
1672.76175	0.2085373551
1671.33204	0.2130892426
1669.90233	0.2177608311
1668.47262	0.2223738879
1667.04291	0.2267540693
1665.61320	0.2308974713
1664.18349	0.2349290550
1662.75378	0.2388748229
1661.32407	0.2425182015
1659.89436	0.2455383241
1658.46465	0.2477646172
1657.03493	0.2492426783
1655.60522	0.2500898242
1654.17551	0.2503268123
1652.74580	0.2498640865
1651.31609	0.2486830205
1649.88638	0.2469254434
1648.45667	0.2447593659
1647.02696	0.2423213273
1645.59725	0.2397861183
1644.16754	0.2373464257
1642.73783	0.2350822538
1641.30811	0.2328961939
1639.87840	0.2305625826
1638.44869	0.2278226465
1637.01898	0.2245308906
1635.58927	0.2208243012
1634.15956	0.2170521170
1632.72985	0.2134249955
1631.30014	0.2098492980
1629.87043	0.2060687840
1628.44072	0.2018249780
1627.01101	0.1969542652
1625.58129	0.1914822906
1624.15158	0.1856578737
1622.72187	0.1798038930
1621.29216	0.1740743518
1619.86245	0.1683716476
1618.43274	0.1625153273
1617.00303	0.1565238684
1615.57332	0.1507290006
1614.14361	0.1455255449
1612.71390	0.1410295218
1611.28419	0.1370538026
1609.85447	0.1333439648
1608.42476	0.1297838986
1606.99505	0.1264264882
1605.56534	0.1233821213
1604.13563	0.1206968948
1602.70592	0.1183375344
1601.27621	0.1162541211
1599.84650	0.1144197434
1598.41679	0.1128146872
1596.98708	0.1114073992
1595.55737	0.1101670191
1594.12765	0.1090877503
1592.69794	0.1081854403
1591.26823	0.1074730977
1589.83852	0.1069503725
1588.40881	0.1066165119
1586.97910	0.1064778268
1585.54939	0.1065297276
1584.11968	0.1067402810
1582.68997	0.1070648655
1581.26026	0.1074846014
1579.83055	0.1080264002
1578.40083	0.1087411717
1576.97112	0.1096461788
1575.54141	0.1106846482
1574.11170	0.1117690355
1572.68199	0.1128698662
1571.25228	0.1140380874
1569.82257	0.1153372452
1568.39286	0.1167574525
1566.96315	0.1181991026
1565.53344	0.1195576936
1564.10373	0.1208274439
1562.67401	0.1221484467
1561.24430	0.1238016263
1559.81459	0.1260872781
1558.38488	0.1289559901
1556.95517	0.1318104565
1555.52546	0.1340827495
1554.09575	0.1357048750
1552.66604	0.1368504167
1551.23633	0.1376340091
1549.80662	0.1380625665
1548.37691	0.1381035447
1546.94719	0.1377415955
1545.51748	0.1369674355
1544.08777	0.1357267350
1542.65806	0.1339383274
1541.22835	0.1316804588
1539.79864	0.1293287426
1538.36893	0.1272498965
1536.93922	0.1254599839
1535.50951	0.1237535030
1534.07980	0.1219645664
1532.65009	0.1200668514
1531.22037	0.1181315482
1529.79066	0.1162262484
1528.36095	0.1143492386
1526.93124	0.1124455333
1525.50153	0.1104648337
1524.07182	0.1084084213
1522.64211	0.1063394845
1521.21240	0.1043523401
1519.78269	0.1025150642
1518.35298	0.1008230671
1516.92327	0.0992067158
1515.49356	0.0975829810
1514.06384	0.0958904848
1512.63413	0.0940696225
1511.20442	0.0920082107
1509.77471	0.0895321742
1508.34500	0.0865650401
1506.91529	0.0834387615
1505.48558	0.0808086842
1504.05587	0.0789933652
1502.62616	0.0777732134
1501.19645	0.0767799541
1499.76674	0.0757662132
1498.33702	0.0746587291
1496.90731	0.0735257640
1495.47760	0.0724783167
1494.04789	0.0715609938
1492.61818	0.0707378089
1491.18847	0.0699604824
1489.75876	0.0692325160
1488.32905	0.0686201751
1486.89934	0.0681957006
1485.46963	0.0679738745
1484.03992	0.0679147243
1482.61020	0.0679686368
1481.18049	0.0681081489
1479.75078	0.0683322549
1478.32107	0.0686578602
1476.89136	0.0691137388
1475.46165	0.0697319806
1474.03194	0.0705148578
1472.60223	0.0713854283
1471.17252	0.0722007602
1469.74281	0.0728480592
1468.31310	0.0733023584
1466.88338	0.0736060068
1465.45367	0.0738233998
1464.02396	0.0740071312
1462.59425	0.0741816685
1461.16454	0.0743503496
1459.73483	0.0745161101
1458.30512	0.0746875033
1456.87541	0.0748565942
1455.44570	0.0749799758
1454.01599	0.0750051364
1452.58628	0.0749051943
1451.15656	0.0746769309
1449.72685	0.0743301660
1448.29714	0.0738912150
1446.86743	0.0734068751
1445.43772	0.0729261935
1444.00801	0.0724702403
1442.57830	0.0720208809
1441.14859	0.0715353563
1439.71888	0.0709731802
1438.28917	0.0703266636
1436.85946	0.0696462169
1435.42974	0.0690301582
1434.00003	0.0685690269
1432.57032	0.0683021396
1431.14061	0.0682242960
1429.71090	0.0683128387
1428.28119	0.0685393885
1426.85148	0.0688688084
1425.42177	0.0692631528
1423.99206	0.0696918592
1422.56235	0.0701422542
1421.13264	0.0706211105
1419.70292	0.0711438507
1418.27321	0.0717118010
1416.84350	0.0723006725
1415.41379	0.0728779137
1413.98408	0.0734278709
1412.55437	0.0739544332
1411.12466	0.0744677112
1409.69495	0.0749694183
1408.26524	0.0754495040
1406.83553	0.0758894831
1405.40582	0.0762658790
1403.97610	0.0765494034
1402.54639	0.0767073333
1401.11668	0.0767128617
1399.68697	0.0765563548
1398.25726	0.0762507245
1396.82755	0.0758307278
1395.39784	0.0753443390
1393.96813	0.0748310685
1392.53842	0.0743013546
1391.10871	0.0737349242
1389.67900	0.0730995908
1388.24928	0.0723800808
1386.81957	0.0715994537
1385.38986	0.0708128512
1383.96015	0.0700711310
1382.53044	0.0693899617
1381.10073	0.0687535852
1379.67102	0.0681419149
1378.24131	0.0675525144
1376.81160	0.0670061633
1375.38189	0.0665361360
1373.95218	0.0661695227
1372.52246	0.0659102499
1371.09275	0.0657343045
1369.66304	0.0655989572
1368.23333	0.0654603690
1366.80362	0.0652885139
1365.37391	0.0650770962
1363.94420	0.0648472980
1362.51449	0.0646403953
1361.08478	0.0644997954
1359.65507	0.0644490793
1358.22536	0.0644843951
1356.79565	0.0645805001
1355.36593	0.0647039041
1353.93622	0.0648242757
1352.50651	0.0649233758
1351.07680	0.0649954677
1349.64709	0.0650430620
1348.21738	0.0650691912
1346.78767	0.0650762841
1345.35796	0.0650687367
1343.92825	0.0650562868
1342.49854	0.0650532544
1341.06883	0.0650749654
1339.63911	0.0651331246
1338.20940	0.0652279258
1336.77969	0.0653474256
1335.34998	0.0654737875
1333.92027	0.0655954629
1332.49056	0.0657156333
1331.06085	0.0658510253
1329.63114	0.0660225227
1328.20143	0.0662414581
1326.77172	0.0665031895
1325.34201	0.0667895004
1323.91229	0.0670797154
1322.48258	0.0673611462
1321.05287	0.0676326007
1319.62316	0.0679002851
1318.19345	0.0681692585
1316.76374	0.0684370026
1315.33403	0.0686959401
1313.90432	0.0689411983
1312.47461	0.0691772103
1311.04490	0.0694146529
1309.61519	0.0696617439
1308.18547	0.0699174553
1306.75576	0.0701722279
1305.32605	0.0704149082
1303.89634	0.0706382915
1302.46663	0.0708407015
1301.03692	0.0710254014
1299.60721	0.0711996257
1298.17750	0.0713721588
1296.74779	0.0715475902
1295.31808	0.0717217550
1293.88837	0.0718830079
1292.45865	0.0720220730
1291.02894	0.0721408278
1289.59923	0.0722521544
1288.16952	0.0723701119
1286.73981	0.0724985376
1285.31010	0.0726295039
1283.88039	0.0727516115
1282.45068	0.0728602782
1281.02097	0.0729627833
1279.59126	0.0730751827
1278.16155	0.0732143819
1276.73183	0.0733934194
1275.30212	0.0736202970
1273.87241	0.0739006624
1272.44270	0.0742383897
1271.01299	0.0746361390
1269.58328	0.0750940293
1268.15357	0.0756127015
1266.72386	0.0761964917
1265.29415	0.0768561363
1263.86444	0.0776044056
1262.43473	0.0784479156
1261.00501	0.0793797672
1259.57530	0.0803782493
1258.14559	0.0814122781
1256.71588	0.0824490041
1255.28617	0.0834564194
1253.85646	0.0844028965
1252.42675	0.0852561668
1250.99704	0.0859857723
1249.56733	0.0865663067
1248.13762	0.0869813859
1246.70791	0.0872252285
1245.27819	0.0873034298
1243.84848	0.0872310847
1242.41877	0.0870300308
1240.98906	0.0867245644
1239.55935	0.0863384604
1238.12964	0.0858924165
1236.69993	0.0854029208
1235.27022	0.0848820731
1233.84051	0.0843382031
1232.41080	0.0837785900
1230.98109	0.0832121819
1229.55137	0.0826500729
1228.12166	0.0821027979
1226.69195	0.0815745741
1225.26224	0.0810592249
1223.83253	0.0805399418
1222.40282	0.0799953490
1220.97311	0.0794086680
1219.54340	0.0787743628
1218.11369	0.0781002045
1216.68398	0.0774035230
1215.25427	0.0767056346
1213.82455	0.0760264099
1212.39484	0.0753826797
1210.96513	0.0747856200
1209.53542	0.0742404163
1208.10571	0.0737477764
1206.67600	0.0733076930
1205.24629	0.0729239881
1203.81658	0.0726058260
1202.38687	0.0723652840
1200.95716	0.0722125024
1199.52745	0.0721530169
1198.09774	0.0721882582
1196.66802	0.0723183453
1195.23831	0.0725424662
1193.80860	0.0728557184
1192.37889	0.0732468292
1190.94918	0.0736984760
1189.51947	0.0741927549
1188.08976	0.0747185871
1186.66005	0.0752763599
1185.23034	0.0758769363
1183.80063	0.0765380114
1182.37092	0.0772764832
1180.94120	0.0781021938
1179.51149	0.0790125206
1178.08178	0.0799910501
1176.65207	0.0810119659
1175.22236	0.0820486993
1173.79265	0.0830820501
1172.36294	0.0841043591
1170.93323	0.0851196945
1169.50352	0.0861410424
1168.07381	0.0871853903
1166.64410	0.0882685781
1165.21438	0.0893992782
1163.78467	0.0905749276
1162.35496	0.0917837322
1160.92525	0.0930102766
1159.49554	0.0942418724
1158.06583	0.0954701602
1156.63612	0.0966873467
1155.20641	0.0978830457
1153.77670	0.0990462825
1152.34699	0.1001727656
1150.91728	0.1012722403
1149.48756	0.1023681760
1148.05785	0.1034901515
1146.62814	0.1046628207
1145.19843	0.1059004366
1143.76872	0.1072101370
1142.33901	0.1085996777
1140.90930	0.1100821942
1139.47959	0.1116732508
1138.04988	0.1133831367
1136.62017	0.1152101234
1135.19046	0.1171432063
1133.76074	0.1191692129
1132.33103	0.1212803796
1130.90132	0.1234746128
1129.47161	0.1257497519
1128.04190	0.1281006485
1126.61219	0.1305196583
1125.18248	0.1330025494
1123.75277	0.1355490386
1122.32306	0.1381583363
1120.89335	0.1408221871
1119.46364	0.1435249001
1118.03392	0.1462540925
1116.60421	0.1490119845
1115.17450	0.1518191546
1113.74479	0.1547021717
1112.31508	0.1576732993
1110.88537	0.1607140303
1109.45566	0.1637735218
1108.02595	0.1667832583
1106.59624	0.1696789563
1105.16653	0.1724167615
1103.73682	0.1749753803
1102.30710	0.1773465276
1100.87739	0.1795246005
1099.44768	0.1815053374
1098.01797	0.1832930595
1096.58826	0.1849040389
1095.15855	0.1863595098
1093.72884	0.1876693666
1092.29913	0.1888202131
1090.86942	0.1897752434
1089.43971	0.1904835254
1088.01000	0.1908931583
1086.58028	0.1909624636
1085.15057	0.1906698346
1083.72086	0.1900185347
1082.29115	0.1890328974
1080.86144	0.1877458990
1079.43173	0.1861845404
1078.00202	0.1843666583
1076.57231	0.1823091954
1075.14260	0.1800397635
1073.71289	0.1775986701
1072.28318	0.1750274003
1070.85346	0.1723529398
1069.42375	0.1695798039
1067.99404	0.1666972637
1066.56433	0.1636959612
1065.13462	0.1605800688
1063.70491	0.1573657095
1062.27520	0.1540685743
1060.84549	0.1506899893
1059.41578	0.1472163051
1057.98607	0.1436334252
1056.55636	0.1399461329
1055.12664	0.1361907125
1053.69693	0.1324270964
1052.26722	0.1287196875
1050.83751	0.1251174957
1049.40780	0.1216473952
1047.97809	0.1183206066
1046.54838	0.1151411831
1045.11867	0.1121104732
1043.68896	0.1092244163
1042.25925	0.1064726040
1040.82954	0.1038437113
1039.39983	0.1013348326
1037.97011	0.0989566073
1036.54040	0.0967280045
1035.11069	0.0946649387
1033.68098	0.0927689672
1032.25127	0.0910232663
1030.82156	0.0893982947
1029.39185	0.0878633559
1027.96214	0.0863978714
1026.53243	0.0849985033
1025.10272	0.0836783946
1023.67301	0.0824621469
1022.24329	0.0813797489
1020.81358	0.0804594904
1019.38387	0.0797233060
1017.95416	0.0791836828
1016.52445	0.0788473338
1015.09474	0.0787226930
1013.66503	0.0788263530
1012.23532	0.0791811645
1010.80561	0.0798079446
1009.37590	0.0807165578
1007.94619	0.0819032639
1006.51647	0.0833555162
1005.08676	0.0850571319
1003.65705	0.0869881883
1002.22734	0.0891197026
1000.79763	0.0914042592
999.36792	0.0937687084
997.93821	0.0961120948
996.50850	0.0983096510
995.07879	0.1002251953
993.64908	0.1017257422
992.21937	0.1026966572
990.78965	0.1030551493
989.35994	0.1027629375
987.93023	0.1018368676
986.50052	0.1003523096
985.07081	0.0984310731
983.64110	0.0962162316
982.21139	0.0938406736
980.78168	0.0914068446
979.35197	0.0889817253
977.92226	0.0866048858
976.49255	0.0842977762
975.06283	0.0820700228
973.63312	0.0799228102
972.20341	0.0778561980
970.77370	0.0758767202
969.34399	0.0740028396
967.91428	0.0722611994
966.48457	0.0706772804
965.05486	0.0692674071
963.62515	0.0680374503
962.19544	0.0669873729
960.76573	0.0661149621
959.33601	0.0654165745
957.90630	0.0648833960
956.47659	0.0645019263
955.04688	0.0642572492
953.61717	0.0641374215
952.18746	0.0641319007
950.75775	0.0642261207
949.32804	0.0643968657
947.89833	0.0646124855
946.46862	0.0648394898
945.03891	0.0650487766
943.60919	0.0652204081
942.17948	0.0653451681
940.74977	0.0654236525
939.32006	0.0654625073
937.89035	0.0654701814
936.46064	0.0654523894
935.03093	0.0654118508
933.60122	0.0653495640
932.17151	0.0652653798
930.74180	0.0651601329
929.31209	0.0650375560
927.88237	0.0649079829
926.45266	0.0647882745
925.02295	0.0646961853
923.59324	0.0646409616
922.16353	0.0646157041
920.73382	0.0645971969
919.30411	0.0645538568
917.87440	0.0644573942
916.44469	0.0642941669
915.01498	0.0640712306
913.58527	0.0638147369
912.15555	0.0635599867
910.72584	0.0633419231
909.29613	0.0631909668
907.86642	0.0631339923
906.43671	0.0631941408
905.00700	0.0633829236
903.57729	0.0636929050
902.14758	0.0641009659
900.71787	0.0645837411
899.28816	0.0651343241
897.85845	0.0657619536
896.42873	0.0664772168
894.99902	0.0672769994
893.56931	0.0681442469
892.13960	0.0690605640
890.70989	0.0700163245
889.28018	0.0710097924
887.85047	0.0720368326
886.42076	0.0730821937
884.99105	0.0741225928
883.56134	0.0751363784
882.13163	0.0761158243
880.70192	0.0770710185
879.27220	0.0780220032
877.84249	0.0789836496
876.41278	0.0799531192
874.98307	0.0809095949
873.55336	0.0818264633
872.12365	0.0826842710
870.69394	0.0834758431
869.26423	0.0841989666
867.83452	0.0848471969
866.40481	0.0854061097
864.97510	0.0858578384
863.54538	0.0861876681
862.11567	0.0863901302
860.68596	0.0864686519
859.25625	0.0864321664
857.82654	0.0862929299
856.39683	0.0860661119
854.96712	0.0857733116
853.53741	0.0854422823
852.10770	0.0850991681
850.67799	0.0847572982
849.24828	0.0844146535
847.81856	0.0840654969
846.38885	0.0837180391
844.95914	0.0833975151
843.52943	0.0831312984
842.09972	0.0829285309
840.67001	0.0827748999
839.24030	0.0826460943
837.81059	0.0825236514
836.38088	0.0823985487
834.95117	0.0822621286
833.52146	0.0820989236
832.09174	0.0818906948
830.66203	0.0816270858
829.23232	0.0813119113
827.80261	0.0809622109
826.37290	0.0806041956
824.94319	0.0802698284
823.51348	0.0799933821
822.08377	0.0798043013
820.65406	0.0797193274
819.22435	0.0797376111
817.79464	0.0798404813
816.36492	0.0799971819
814.93521	0.0801766962
813.50550	0.0803599283
812.07579	0.0805467293
810.64608	0.0807488859
809.21637	0.0809736624
807.78666	0.0812115595
806.35695	0.0814411938
804.92724	0.0816458911
803.49753	0.0818253383
802.06782	0.0819905102
800.63810	0.0821500868
799.20839	0.0823056474
797.77868	0.0824609548
796.34897	0.0826341957
794.91926	0.0828557163
793.48955	0.0831496045
792.05984	0.0835159719
790.63013	0.0839288980
789.20042	0.0843530968
787.77071	0.0847636536
786.34100	0.0851544961
784.91128	0.0855317637
783.48157	0.0858992562
782.05186	0.0862488225
780.62215	0.0865612477
779.19244	0.0868185163
777.76273	0.0870187730
776.33302	0.0871824846
774.90331	0.0873470455
773.47360	0.0875524879
772.04389	0.0878255814
770.61418	0.0881719738
769.18446	0.0885744020
767.75475	0.0889970660
766.32504	0.0893979147
764.89533	0.0897425339
763.46562	0.0900196880
762.03591	0.0902453586
760.60620	0.0904525891
759.17649	0.0906708986
757.74678	0.0909101516
756.31707	0.0911612213
754.88736	0.0914110318
753.45764	0.0916579515
752.02793	0.0919147953
750.59822	0.0921965390
749.16851	0.0925039873
747.73880	0.0928175896
746.30909	0.0931052119
744.87938	0.0933406428
743.44967	0.0935190469
742.01996	0.0936619714
740.59025	0.0938083529
739.16054	0.0939954072
737.73082	0.0942429006
736.30111	0.0945489034
734.87140	0.0948986709
733.44169	0.0952802449
732.01198	0.0956937447
730.58227	0.0961498544
729.15256	0.0966590494
727.72285	0.0972195491
726.29314	0.0978108644
724.86343	0.0983972400
723.43372	0.0989407152
722.00401	0.0994179174
720.57429	0.0998334214
719.14458	0.1002185047
717.71487	0.1006156206
716.28516	0.1010582745
714.85545	0.1015585512
713.42574	0.1021063849
711.99603	0.1026749536
710.56632	0.1032278761
709.13661	0.1037300006
707.70690	0.1041580364
706.27719	0.1045090780
704.84747	0.1047977656
703.41776	0.1050442681
701.98805	0.1052605361
700.55834	0.1054479331
699.12863	0.1055999920
697.69892	0.1057082191
696.26921	0.1057623699
694.83950	0.1057524309
693.40979	0.1056765839
691.98008	0.1055571809
690.55037	0.1054477692
689.12065	0.1054181010
687.69094	0.1055175737
686.26123	0.1057443395
684.83152	0.1060414463
683.40181	0.1063291356
681.97210	0.1065481231
680.54239	0.1066850126
679.11268	0.1067640856
677.68297	0.1068192273
676.25326	0.1068701446
674.82355	0.1069216654
673.39383	0.1069809720
671.96412	0.1070758626
670.53441	0.1072564945
669.10470	0.1075627282
667.67499	0.1079660803
666.24528	0.1083605140
664.81557	0.1086484790
663.38586	0.1088043526
661.95615	0.1088586673
660.52644	0.1088642851
659.09673	0.1088765562
657.66701	0.1089318767
656.23730	0.1090281606
654.80759	0.1091255248
653.37788	0.1091760173
651.94817	0.1091621369
650.51846	0.1091147736
649.08875	0.1090970710
647.65904	0.1091645285
646.22933	0.1093320101
644.79962	0.1095699444
643.36991	0.1098252460
641.94019	0.1100461707
640.51048	0.1101952419
639.08077	0.1102502942
637.65106	0.1102045849
636.22135	0.1100659817
634.79164	0.1098488122
633.36193	0.1095576212
631.93222	0.1091721877
630.50251	0.1086511016
629.07280	0.1079583466
627.64309	0.1070958674
626.21337	0.1061243638
624.78366	0.1051523238
623.35395	0.1042973697
621.92424	0.1036447436
620.49453	0.1032314226
619.06482	0.1030520350
617.63511	0.1030633897
616.20540	0.1031845063
614.77569	0.1033210605
613.34598	0.1034060940
611.91627	0.1034267843
610.48655	0.1034095734
609.05684	0.1033863872
607.62713	0.1033784375
606.19742	0.1034147963
604.76771	0.1035504714
603.33800	0.1038476899
601.90829	0.1043283418
600.47858	0.1049422398
599.04887	0.1055874825
