3997.47168	0.0431771912
3996.04197	0.0432659462
3994.61226	0.0433246344
3993.18255	0.0433423966
3991.75284	0.0433303528
3990.32312	0.0433129370
3988.89341	0.0433100462
3987.46370	0.0433258079
3986.03399	0.0433511212
3984.60428	0.0433731750
3983.17457	0.0433839560
3981.74486	0.0433823280
3980.31515	0.0433724001
3978.88544	0.0433613025
3977.45573	0.0433568992
3976.02602	0.0433653370
3974.59630	0.0433856174
3973.16659	0.0434086174
3971.73688	0.0434201732
3970.30717	0.0434115045
3968.87746	0.0433861017
3967.44775	0.0433594435
3966.01804	0.0433504619
3964.58833	0.0433716588
3963.15862	0.0434227772
3961.72891	0.0434917547
3960.29920	0.0435595177
3958.86948	0.0436062776
3957.43977	0.0436173268
3956.01006	0.0435851291
3954.58035	0.0435098968
3953.15064	0.0434003770
3951.72093	0.0432729274
3950.29122	0.0431499705
3948.86151	0.0430532321
3947.43180	0.0429994129
3946.00209	0.0429970138
3944.57238	0.0430471748
3943.14266	0.0431434810
3941.71295	0.0432689786
3940.28324	0.0433958881
3938.85353	0.0434951037
3937.42382	0.0435492992
3935.99411	0.0435600877
3934.56440	0.0435439199
3933.13469	0.0435214862
3931.70498	0.0435067788
3930.27527	0.0435050316
3928.84556	0.0435168222
3927.41585	0.0435395129
3925.98613	0.0435661264
3924.55642	0.0435837284
3923.12671	0.0435810946
3921.69700	0.0435617492
3920.26729	0.0435460657
3918.83758	0.0435604602
3917.40787	0.0436162092
3915.97816	0.0436954685
3914.54845	0.0437574759
3913.11874	0.0437585935
3911.68903	0.0436703637
3910.25931	0.0434878953
3908.82960	0.0432317182
3907.39989	0.0429485999
3905.97018	0.0427079387
3904.54047	0.0425865687
3903.11076	0.0426318869
3901.68105	0.0428185090
3900.25134	0.0430497751
3898.82163	0.0432256572
3897.39192	0.0433048718
3895.96221	0.0433109626
3894.53249	0.0432990082
3893.10278	0.0433179401
3891.67307	0.0433815829
3890.24336	0.0434633456
3888.81365	0.0435219705
3887.38394	0.0435388535
3885.95423	0.0435314737
3884.52452	0.0435354225
3883.09481	0.0435725078
3881.66510	0.0436312072
3880.23539	0.0436711647
3878.80567	0.0436484963
3877.37596	0.0435403138
3875.94625	0.0433597006
3874.51654	0.0431578048
3873.08683	0.0430092439
3871.65712	0.0429733209
3870.22741	0.0430495180
3868.79770	0.0431773625
3867.36799	0.0432958044
3865.93828	0.0433899947
3864.50857	0.0434722155
3863.07885	0.0435294136
3861.64914	0.0435065776
3860.21943	0.0433491170
3858.78972	0.0430579223
3857.36001	0.0427201912
3855.93030	0.0425171927
3854.50059	0.0426622704
3853.07088	0.0431960039
3851.64117	0.0438537113
3850.21146	0.0443160050
3848.78175	0.0444759391
3847.35203	0.0443885960
3845.92232	0.0441439524
3844.49261	0.0438199528
3843.06290	0.0434939004
3841.63319	0.0432623737
3840.20348	0.0432238542
3838.77377	0.0434146225
3837.34406	0.0437509492
3835.91435	0.0440718047
3834.48464	0.0442605391
3833.05493	0.0443094410
3831.62521	0.0442779101
3830.19550	0.0442170314
3828.76579	0.0441310592
3827.33608	0.0439985506
3825.90637	0.0438154861
3824.47666	0.0436205305
3823.04695	0.0434882380
3821.61724	0.0434947610
3820.18753	0.0436755717
3818.75782	0.0440005548
3817.32811	0.0443810858
3815.89839	0.0447042994
3814.46868	0.0448819734
3813.03897	0.0448851883
3811.60926	0.0447462499
3810.17955	0.0445341319
3808.74984	0.0443235748
3807.32013	0.0441714637
3805.89042	0.0441076197
3804.46071	0.0441418625
3803.03100	0.0442785993
3801.60129	0.0445135646
3800.17157	0.0448170789
3798.74186	0.0451340973
3797.31215	0.0454123206
3795.88244	0.0456251875
3794.45273	0.0457670242
3793.02302	0.0458372943
3791.59331	0.0458355136
3790.16360	0.0457694083
3788.73389	0.0456621945
3787.30418	0.0455505215
3785.87447	0.0454740562
3784.44475	0.0454634801
3783.01504	0.0455354862
3781.58533	0.0456868671
3780.15562	0.0458845645
3778.72591	0.0460642427
3777.29620	0.0461577401
3775.86649	0.0461358912
3774.43678	0.0460253321
3773.00707	0.0458917841
3771.57736	0.0458066612
3770.14765	0.0458117239
3768.71794	0.0458952934
3767.28822	0.0460021347
3765.85851	0.0460745208
3764.42880	0.0460907519
3762.99909	0.0460668914
3761.56938	0.0460328162
3760.13967	0.0459989123
3758.70996	0.0459390022
3757.28025	0.0458078682
3755.85054	0.0455866307
3754.42083	0.0453154221
3752.99112	0.0450847298
3751.56140	0.0449792333
3750.13169	0.0450130552
3748.70198	0.0451386645
3747.27227	0.0453340709
3745.84256	0.0456343591
3744.41285	0.0460433476
3742.98314	0.0464576781
3741.55343	0.0467328578
3740.12372	0.0468043536
3738.69401	0.0467338376
3737.26430	0.0466725565
3735.83458	0.0467727855
3734.40487	0.0470673777
3732.97516	0.0474258028
3731.54545	0.0476850718
3730.11574	0.0477872975
3728.68603	0.0477775298
3727.25632	0.0477418751
3725.82661	0.0477613211
3724.39690	0.0478811078
3722.96719	0.0480902717
3721.53748	0.0483252294
3720.10776	0.0485065319
3718.67805	0.0485778563
3717.24834	0.0485257804
3715.81863	0.0483876690
3714.38892	0.0482570976
3712.95921	0.0482703485
3711.52950	0.0485256054
3710.09979	0.0489716046
3708.67008	0.0494250804
3707.24037	0.0497411005
3705.81066	0.0499173626
3704.38094	0.0500523262
3702.95123	0.0502526015
3701.52152	0.0505566336
3700.09181	0.0509116054
3698.66210	0.0512185730
3697.23239	0.0514056012
3695.80268	0.0514711402
3694.37297	0.0514904633
3692.94326	0.0516015179
3691.51355	0.0519545153
3690.08384	0.0525958873
3688.65412	0.0533714853
3687.22441	0.0540218465
3685.79470	0.0543981753
3684.36499	0.0545236804
3682.93528	0.0544988252
3681.50557	0.0544258133
3680.07586	0.0543979108
3678.64615	0.0545136742
3677.21644	0.0548595302
3675.78673	0.0554513857
3674.35702	0.0562148988
3672.92730	0.0570659526
3671.49759	0.0579882190
3670.06788	0.0589944609
3668.63817	0.0600462854
3667.20846	0.0610559732
3665.77875	0.0619584285
3664.34904	0.0627488494
3662.91933	0.0634599403
3661.48962	0.0641259849
3660.05991	0.0647702441
3658.63020	0.0654084831
3657.20048	0.0660449713
3655.77077	0.0666693300
3654.34106	0.0672843158
3652.91135	0.0679659396
3651.48164	0.0688967183
3650.05193	0.0702687800
3648.62222	0.0720447749
3647.19251	0.0738742128
3645.76280	0.0754100829
3644.33309	0.0765914619
3642.90338	0.0775612965
3641.47366	0.0784815326
3640.04395	0.0794435740
3638.61424	0.0804585889
3637.18453	0.0814796016
3635.75482	0.0824469328
3634.32511	0.0833525062
3632.89540	0.0843003243
3631.46569	0.0855065733
3630.03598	0.0871530250
3628.60627	0.0891340300
3627.17656	0.0910366401
3625.74684	0.0925137624
3624.31713	0.0935595706
3622.88742	0.0944103226
3621.45771	0.0953313783
3620.02800	0.0964717194
3618.59829	0.0978033468
3617.16858	0.0991738960
3615.73887	0.1004487276
3614.30916	0.1016107500
3612.87945	0.1027539447
3611.44974	0.1040082946
3610.02003	0.1054485962
3608.59031	0.1070271432
3607.16060	0.1085952595
3605.73089	0.1100101247
3604.30118	0.1112261713
3602.87147	0.1122917980
3601.44176	0.1132963002
3600.01205	0.1143225655
3598.58234	0.1154236794
3597.15263	0.1166060418
3595.72292	0.1178186908
3594.29321	0.1189797521
3592.86349	0.1200498864
3591.43378	0.1210923195
3590.00407	0.1222505495
3588.57436	0.1236332878
3587.14465	0.1251889765
3585.71494	0.1267159730
3584.28523	0.1280332655
3582.85552	0.1291144788
3581.42581	0.1300615966
3579.99610	0.1309991777
3578.56639	0.1320019215
3577.13667	0.1330710799
3575.70696	0.1341475844
3574.27725	0.1351567805
3572.84754	0.1360678524
3571.41783	0.1369381547
3569.98812	0.1379077137
3568.55841	0.1391238868
3567.12870	0.1406158805
3565.69899	0.1422351152
3564.26928	0.1437651366
3562.83957	0.1450870335
3561.40985	0.1462133378
3559.98014	0.1472148150
3558.55043	0.1481610388
3557.12072	0.1491083056
3555.69101	0.1501026303
3554.26130	0.1511697918
3552.83159	0.1523040682
3551.40188	0.1534820348
3549.97217	0.1546927840
3548.54246	0.1559502780
3547.11275	0.1572650373
3545.68303	0.1586037129
3544.25332	0.1598881930
3542.82361	0.1610490680
3541.39390	0.1620768905
3539.96419	0.1630268097
3538.53448	0.1639737636
3537.10477	0.1649627686
3535.67506	0.1659855396
3534.24535	0.1670003980
3532.81564	0.1679791957
3531.38593	0.1689400226
3529.95621	0.1699377596
3528.52650	0.1710190922
3527.09679	0.1721809655
3525.66708	0.1733694971
3524.23737	0.1745211333
3522.80766	0.1756044924
3521.37795	0.1766274571
3519.94824	0.1776150018
3518.51853	0.1785855889
3517.08882	0.1795450747
3515.65911	0.1804938614
3514.22939	0.1814345419
3512.79968	0.1823720634
3511.36997	0.1833075881
3509.94026	0.1842352748
3508.51055	0.1851493865
3507.08084	0.1860603988
3505.65113	0.1870003641
3504.22142	0.1880028397
3502.79171	0.1890668571
3501.36200	0.1901443303
3499.93229	0.1911704987
3498.50257	0.1921125352
3497.07286	0.1929875910
3495.64315	0.1938344389
3494.21344	0.1946744323
3492.78373	0.1955019981
3491.35402	0.1963057518
3489.92431	0.1970886737
3488.49460	0.1978649795
3487.06489	0.1986449510
3485.63518	0.1994312406
3484.20547	0.2002258152
3482.77575	0.2010284215
3481.34604	0.2018246502
3479.91633	0.2025876790
3478.48662	0.2033020109
3477.05691	0.2039861828
3475.62720	0.2046846151
3474.19749	0.2054302990
3472.76778	0.2062157840
3471.33807	0.2069982886
3469.90836	0.2077304125
3468.47865	0.2083867043
3467.04893	0.2089720964
3465.61922	0.2095153183
3464.18951	0.2100566179
3462.75980	0.2106260508
3461.33009	0.2112258226
3459.90038	0.2118296325
3458.47067	0.2124050707
3457.04096	0.2129376829
3455.61125	0.2134354562
3454.18154	0.2139140964
3452.75183	0.2143873721
3451.32212	0.2148707509
3449.89240	0.2153856605
3448.46269	0.2159480006
3447.03298	0.2165515572
3445.60327	0.2171705812
3444.17356	0.2177810967
3442.74385	0.2183759809
3441.31414	0.2189544737
3439.88443	0.2195020020
3438.45472	0.2199911624
3437.02501	0.2204044163
3435.59530	0.2207542360
3434.16558	0.2210749090
3432.73587	0.2213983387
3431.30616	0.2217339873
3429.87645	0.2220709324
3428.44674	0.2223909497
3427.01703	0.2226843536
3425.58732	0.2229585499
3424.15761	0.2232375294
3422.72790	0.2235474139
3421.29819	0.2238972038
3419.86848	0.2242696285
3418.43876	0.2246335298
3417.00905	0.2249673456
3415.57934	0.2252690643
3414.14963	0.2255480587
3412.71992	0.2258100361
3411.29021	0.2260554433
3409.86050	0.2262871861
3408.43079	0.2265127152
3407.00108	0.2267373949
3405.57137	0.2269584090
3404.14166	0.2271684259
3402.71194	0.2273641378
3401.28223	0.2275482714
3399.85252	0.2277251184
3398.42281	0.2278984189
3396.99310	0.2280716598
3395.56339	0.2282457501
3394.13368	0.2284117639
3392.70397	0.2285483927
3391.27426	0.2286338359
3389.84455	0.2286622822
3388.41484	0.2286523283
3386.98512	0.2286375165
3385.55541	0.2286496162
3384.12570	0.2287074178
3382.69599	0.2288117558
3381.26628	0.2289459258
3379.83657	0.2290829867
3378.40686	0.2292025983
3376.97715	0.2293076515
3375.54744	0.2294261754
3374.11773	0.2295867503
3372.68802	0.2297894061
3371.25830	0.2299939841
3369.82859	0.2301419824
3368.39888	0.2301941365
3366.96917	0.2301532775
3365.53946	0.2300608605
3364.10975	0.2299714386
3362.68004	0.2299242318
3361.25033	0.2299318761
3359.82062	0.2299877852
3358.39091	0.2300842404
3356.96120	0.2302218974
3355.53148	0.2304000556
3354.10177	0.2305989861
3352.67206	0.2307754159
3351.24235	0.2308825403
3349.81264	0.2309028804
3348.38293	0.2308647782
3346.95322	0.2308280468
3345.52351	0.2308503836
3344.09380	0.2309556156
3342.66409	0.2311225832
3341.23438	0.2312964946
3339.80466	0.2314148098
3338.37495	0.2314372659
3336.94524	0.2313670516
3335.51553	0.2312500626
3334.08582	0.2311514616
3332.65611	0.2311232537
3331.22640	0.2311842144
3329.79669	0.2313224673
3328.36698	0.2315096408
3326.93727	0.2317133695
3325.50756	0.2319050431
3324.07784	0.2320645154
3322.64813	0.2321867496
3321.21842	0.2322831601
3319.78871	0.2323751748
3318.35900	0.2324863225
3316.92929	0.2326394171
3315.49958	0.2328581810
3314.06987	0.2331648618
3312.64016	0.2335663736
3311.21045	0.2340376526
3309.78074	0.2345139682
3308.35102	0.2349082828
3306.92131	0.2351477295
3305.49160	0.2352099270
3304.06189	0.2351392806
3302.63218	0.2350293696
3301.20247	0.2349785417
3299.77276	0.2350402623
3298.34305	0.2351983041
3296.91334	0.2353820056
3295.48363	0.2355079353
3294.05392	0.2355209440
3292.62421	0.2354119122
3291.19449	0.2352093905
3289.76478	0.2349568903
3288.33507	0.2346911132
3286.90536	0.2344291359
3285.47565	0.2341677696
3284.04594	0.2338932902
3282.61623	0.2335921675
3281.18652	0.2332601547
3279.75681	0.2329014093
3278.32710	0.2325236350
3276.89739	0.2321294844
3275.46767	0.2317063063
3274.03796	0.2312202305
3272.60825	0.2306247056
3271.17854	0.2298838347
3269.74883	0.2290000916
3268.31912	0.2280207127
3266.88941	0.2270179540
3265.45970	0.2260516584
3264.02999	0.2251467109
3262.60028	0.2242974937
3261.17057	0.2234901488
3259.74085	0.2227149606
3258.31114	0.2219631672
3256.88143	0.2212192565
3255.45172	0.2204675823
3254.02201	0.2197086215
3252.59230	0.2189628184
3251.16259	0.2182524353
3249.73288	0.2175778151
3248.30317	0.2169105262
3246.87346	0.2162139118
3245.44375	0.2154733688
3244.01403	0.2147122920
3242.58432	0.2139817029
3241.15461	0.2133317441
3239.72490	0.2127846181
3238.29519	0.2123201787
3236.86548	0.2118827999
3235.43577	0.2114071101
3234.00606	0.2108496130
3232.57635	0.2102087587
3231.14664	0.2095197588
3229.71693	0.2088295370
3228.28721	0.2081722766
3226.85750	0.2075610012
3225.42779	0.2069966197
3223.99808	0.2064785659
3222.56837	0.2060054988
3221.13866	0.2055678219
3219.70895	0.2051434964
3218.27924	0.2047041208
3216.84953	0.2042267323
3215.41982	0.2037050128
3213.99011	0.2031495720
3212.56039	0.2025818974
3211.13068	0.2020213008
3209.70097	0.2014755905
3208.27126	0.2009356171
3206.84155	0.2003841251
3205.41184	0.1998087615
3203.98213	0.1992136836
3202.55242	0.1986180395
3201.12271	0.1980434954
3199.69300	0.1975021511
3198.26329	0.1969917864
3196.83357	0.1965007335
3195.40386	0.1960141063
3193.97415	0.1955160797
3192.54444	0.1949891001
3191.11473	0.1944167167
3189.68502	0.1937925369
3188.25531	0.1931247115
3186.82560	0.1924352795
3185.39589	0.1917496473
3183.96618	0.1910856366
3182.53647	0.1904494464
3181.10675	0.1898383200
3179.67704	0.1892451644
3178.24733	0.1886594743
3176.81762	0.1880670935
3175.38791	0.1874533594
3173.95820	0.1868098527
3172.52849	0.1861386299
3171.09878	0.1854526699
3169.66907	0.1847705543
3168.23936	0.1841101199
3166.80965	0.1834831834
3165.37993	0.1828910857
3163.95022	0.1823220700
3162.52051	0.1817570776
3161.09080	0.1811809540
3159.66109	0.1805935353
3158.23138	0.1800076663
3156.80167	0.1794336140
3155.37196	0.1788621694
3153.94225	0.1782653481
3152.51254	0.1776146442
3151.08283	0.1769039184
3149.65311	0.1761587709
3148.22340	0.1754236370
3146.79369	0.1747402400
3145.36398	0.1741295010
3143.93427	0.1735838205
3142.50456	0.1730714440
3141.07485	0.1725489646
3139.64514	0.1719808728
3138.21543	0.1713587940
3136.78572	0.1707064211
3135.35601	0.1700646728
3133.92629	0.1694626957
3132.49658	0.1688970923
3131.06687	0.1683383435
3129.63716	0.1677602679
3128.20745	0.1671679765
3126.77774	0.1666012853
3125.34803	0.1661099046
3123.91832	0.1657187045
3122.48861	0.1654084176
3121.05890	0.1651222557
3119.62919	0.1647931784
3118.19948	0.1643746495
3116.76976	0.1638587564
3115.34005	0.1632747352
3113.91034	0.1626701504
3112.48063	0.1620838791
3111.05092	0.1615289301
3109.62121	0.1609962583
3108.19150	0.1604745686
3106.76179	0.1599683017
3105.33208	0.1594949663
3103.90237	0.1590649486
3102.47266	0.1586649567
3101.04294	0.1582635194
3099.61323	0.1578360498
3098.18352	0.1573889107
3096.75381	0.1569544971
3095.32410	0.1565665156
3093.89439	0.1562349498
3092.46468	0.1559413075
3091.03497	0.1556544155
3089.60526	0.1553501040
3088.17555	0.1550202072
3086.74584	0.1546696126
3085.31612	0.1543085426
3083.88641	0.1539445072
3082.45670	0.1535761952
3081.02699	0.1531916112
3079.59728	0.1527711004
3078.16757	0.1522989273
3076.73786	0.1517744362
3075.30815	0.1512163579
3073.87844	0.1506555378
3072.44873	0.1501196027
3071.01902	0.1496198624
3069.58930	0.1491466612
3068.15959	0.1486757845
3066.72988	0.1481822729
3065.30017	0.1476558149
3063.87046	0.1471058428
3062.44075	0.1465545595
3061.01104	0.1460222155
3059.58133	0.1455140114
3058.15162	0.1450186074
3056.72191	0.1445161849
3055.29220	0.1439915597
3053.86248	0.1434413344
3052.43277	0.1428759843
3051.00306	0.1423138231
3049.57335	0.1417731196
3048.14364	0.1412624568
3046.71393	0.1407736838
3045.28422	0.1402825713
3043.85451	0.1397611052
3042.42480	0.1391934603
3040.99509	0.1385882795
3039.56538	0.1379737556
3038.13566	0.1373800188
3036.70595	0.1368175745
3035.27624	0.1362701952
3033.84653	0.1357081980
3032.41682	0.1351104230
3030.98711	0.1344793141
3029.55740	0.1338379830
3028.12769	0.1332146227
3026.69798	0.1326298267
3025.26827	0.1320942640
3023.83856	0.1316120028
3022.40884	0.1311815977
3020.97913	0.1307931542
3019.54942	0.1304266751
3018.11971	0.1300566792
3016.69000	0.1296610385
3015.26029	0.1292271912
3013.83058	0.1287525594
3012.40087	0.1282434911
3010.97116	0.1277148277
3009.54145	0.1271907389
3008.11174	0.1266989261
3006.68202	0.1262617260
3005.25231	0.1258877814
3003.82260	0.1255729198
3002.39289	0.1253092438
3000.96318	0.1250923872
2999.53347	0.1249212399
2998.10376	0.1247895882
2996.67405	0.1246791929
2995.24434	0.1245636567
2993.81463	0.1244217083
2992.38492	0.1242528185
2990.95520	0.1240826547
2989.52549	0.1239537746
2988.09578	0.1239070073
2986.66607	0.1239628643
2985.23636	0.1241138950
2983.80665	0.1243313253
2982.37694	0.1245793775
2980.94723	0.1248293072
2979.51752	0.1250663549
2978.08781	0.1252868474
2976.65810	0.1254932284
2975.22838	0.1256890744
2973.79867	0.1258784831
2972.36896	0.1260671765
2970.93925	0.1262646317
2969.50954	0.1264796108
2968.07983	0.1267136782
2966.65012	0.1269524544
2965.22041	0.1271635145
2963.79070	0.1273033768
2962.36099	0.1273323596
2960.93128	0.1272281110
2959.50157	0.1269908845
2958.07185	0.1266365796
2956.64214	0.1261857450
2955.21243	0.1256578267
2953.78272	0.1250750870
2952.35301	0.1244727299
2950.92330	0.1238995716
2949.49359	0.1234064028
2948.06388	0.1230243966
2946.63417	0.1227537021
2945.20446	0.1225692630
2943.77475	0.1224412397
2942.34503	0.1223515794
2940.91532	0.1222959682
2939.48561	0.1222736314
2938.05590	0.1222799122
2936.62619	0.1223075315
2935.19648	0.1223518550
2933.76677	0.1224078834
2932.33706	0.1224609688
2930.90735	0.1224810183
2929.47764	0.1224325895
2928.04793	0.1222931221
2926.61821	0.1220639572
2925.18850	0.1217637733
2923.75879	0.1214101166
2922.32908	0.1210036203
2920.89937	0.1205267832
2919.46966	0.1199538261
2918.03995	0.1192652732
2916.61024	0.1184579581
2915.18053	0.1175491810
2913.75082	0.1165750623
2912.32111	0.1155821458
2910.89139	0.1146167666
2909.46168	0.1137123555
2908.03197	0.1128839031
2906.60226	0.1121294722
2905.17255	0.1114380434
2903.74284	0.1108009666
2902.31313	0.1102166995
2900.88342	0.1096875668
2899.45371	0.1092107967
2898.02400	0.1087726653
2896.59429	0.1083530411
2895.16457	0.1079379693
2893.73486	0.1075288355
2892.30515	0.1071404293
2890.87544	0.1067904606
2889.44573	0.1064887792
2888.01602	0.1062360927
2886.58631	0.1060294211
2885.15660	0.1058671027
2883.72689	0.1057504490
2882.29718	0.1056826264
2880.86747	0.1056664139
2879.43775	0.1056972519
2878.00804	0.1057532281
2876.57833	0.1057897508
2875.14862	0.1057485044
2873.71891	0.1055811122
2872.28920	0.1052722782
2870.85949	0.1048446223
2869.42978	0.1043444052
2868.00007	0.1038188562
2866.57036	0.1033038870
2865.14065	0.1028243676
2863.71093	0.1023991108
2862.28122	0.1020411924
2860.85151	0.1017522737
2859.42180	0.1015183851
2857.99209	0.1013119817
2856.56238	0.1010995358
2855.13267	0.1008483693
2853.70296	0.1005295366
2852.27325	0.1001177058
2850.84354	0.0995928794
2849.41383	0.0989474729
2847.98411	0.0981978625
2846.55440	0.0973904878
2845.12469	0.0965947658
2843.69498	0.0958799943
2842.26527	0.0952868834
2840.83556	0.0948121697
2839.40585	0.0944167525
2837.97614	0.0940527841
2836.54643	0.0936875716
2835.11672	0.0933118239
2833.68701	0.0929314271
2832.25729	0.0925558507
2830.82758	0.0921922475
2829.39787	0.0918487832
2827.96816	0.0915350467
2826.53845	0.0912591666
2825.10874	0.0910216346
2823.67903	0.0908137485
2822.24932	0.0906208232
2820.81961	0.0904276595
2819.38990	0.0902244523
2817.96019	0.0900096521
2816.53047	0.0897909179
2815.10076	0.0895808488
2813.67105	0.0893874168
2812.24134	0.0892064124
2810.81163	0.0890221670
2809.38192	0.0888196230
2807.95221	0.0885979608
2806.52250	0.0883735195
2805.09279	0.0881690532
2803.66308	0.0879965052
2802.23337	0.0878481418
2800.80366	0.0877027139
2799.37394	0.0875399485
2797.94423	0.0873533785
2796.51452	0.0871516317
2795.08481	0.0869494155
2793.65510	0.0867545307
2792.22539	0.0865611583
2790.79568	0.0863537788
2789.36597	0.0861199275
2787.93626	0.0858618468
2786.50655	0.0855974555
2785.07684	0.0853497386
2783.64712	0.0851343423
2782.21741	0.0849535540
2780.78770	0.0848009065
2779.35799	0.0846673176
2777.92828	0.0845430121
2776.49857	0.0844147205
2775.06886	0.0842662826
2773.63915	0.0840851665
2772.20944	0.0838709325
2770.77973	0.0836359933
2769.35002	0.0833990797
2767.92030	0.0831740275
2766.49059	0.0829641521
2765.06088	0.0827647224
2763.63117	0.0825697929
2762.20146	0.0823776498
2760.77175	0.0821919367
2759.34204	0.0820180848
2757.91233	0.0818600655
2756.48262	0.0817180276
2755.05291	0.0815898478
2753.62320	0.0814724192
2752.19348	0.0813607052
2750.76377	0.0812460184
2749.33406	0.0811158866
2747.90435	0.0809597522
2746.47464	0.0807763860
2745.04493	0.0805773959
2743.61522	0.0803810805
2742.18551	0.0801999569
2740.75580	0.0800323188
2739.32609	0.0798629746
2737.89638	0.0796743855
2736.46666	0.0794586167
2735.03695	0.0792243108
2733.60724	0.0789925903
2732.17753	0.0787870884
2730.74782	0.0786224827
2729.31811	0.0784958303
2727.88840	0.0783881322
2726.45869	0.0782732964
2725.02898	0.0781299546
2723.59927	0.0779497325
2722.16956	0.0777386576
2720.73984	0.0775112212
2719.31013	0.0772835389
2717.88042	0.0770671293
2716.45071	0.0768668950
2715.02100	0.0766811445
2713.59129	0.0765040219
2712.16158	0.0763285160
2710.73187	0.0761500001
2709.30216	0.0759691522
2707.87245	0.0757917985
2706.44274	0.0756261274
2705.01302	0.0754767880
2703.58331	0.0753423125
2702.15360	0.0752146468
2700.72389	0.0750847980
2699.29418	0.0749482885
2697.86447	0.0748077258
2696.43476	0.0746695176
2695.00505	0.0745386705
2693.57534	0.0744150802
2692.14563	0.0742953643
2690.71592	0.0741766691
2689.28620	0.0740592256
2687.85649	0.0739467889
2686.42678	0.0738430694
2684.99707	0.0737490952
2683.56736	0.0736605376
2682.13765	0.0735692680
2680.70794	0.0734675676
2679.27823	0.0733512715
2677.84852	0.0732206330
2676.41881	0.0730779693
2674.98910	0.0729250610
2673.55938	0.0727636069
2672.12967	0.0725983009
2670.69996	0.0724381283
2669.27025	0.0722913444
2667.84054	0.0721591040
2666.41083	0.0720341429
2664.98112	0.0719068274
2663.55141	0.0717745200
2662.12170	0.0716449991
2660.69199	0.0715294033
2659.26228	0.0714315325
2657.83256	0.0713428110
2656.40285	0.0712480024
2654.97314	0.0711364746
2653.54343	0.0710089430
2652.11372	0.0708753169
2650.68401	0.0707475841
2649.25430	0.0706324726
2647.82459	0.0705297813
2646.39488	0.0704357624
2644.96517	0.0703480914
2643.53546	0.0702674985
2642.10575	0.0701960176
2640.67603	0.0701321289
2639.24632	0.0700694025
2637.81661	0.0699987113
2636.38690	0.0699157566
2634.95719	0.0698242411
2633.52748	0.0697353855
2632.09777	0.0696597397
2630.66806	0.0695999637
2629.23835	0.0695474967
2627.80864	0.0694880709
2626.37893	0.0694101304
2624.94921	0.0693125576
2623.51950	0.0692055002
2622.08979	0.0691035390
2620.66008	0.0690175369
2619.23037	0.0689472929
2617.80066	0.0688836724
2616.37095	0.0688163340
2614.94124	0.0687407553
2613.51153	0.0686616451
2612.08182	0.0685877651
2610.65211	0.0685262010
2609.22239	0.0684780404
2607.79268	0.0684401840
2606.36297	0.0684081838
2604.93326	0.0683786720
2603.50355	0.0683487654
2602.07384	0.0683158934
2600.64413	0.0682774559
2599.21442	0.0682320744
2597.78471	0.0681807399
2596.35500	0.0681263208
2594.92529	0.0680729002
2593.49557	0.0680243969
2592.06586	0.0679818019
2590.63615	0.0679433569
2589.20644	0.0679048896
2587.77673	0.0678642690
2586.34702	0.0678245351
2584.91731	0.0677928254
2583.48760	0.0677767843
2582.05789	0.0677790865
2580.62818	0.0677949414
2579.19847	0.0678144619
2577.76875	0.0678270459
2576.33904	0.0678266883
2574.90933	0.0678146109
2573.47962	0.0677977875
2572.04991	0.0677847490
2570.62020	0.0677815974
2569.19049	0.0677898303
2567.76078	0.0678075328
2566.33107	0.0678317100
2564.90136	0.0678599775
2563.47165	0.0678886622
2562.04193	0.0679120049
2560.61222	0.0679226592
2559.18251	0.0679175705
2557.75280	0.0679018945
2556.32309	0.0678886622
2554.89338	0.0678912997
2553.46367	0.0679155141
2552.03396	0.0679560155
2550.60425	0.0680011213
2549.17454	0.0680412054
2547.74483	0.0680748373
2546.31511	0.0681077540
2544.88540	0.0681478828
2543.45569	0.0681987628
2542.02598	0.0682580993
2540.59627	0.0683195293
2539.16656	0.0683773682
2537.73685	0.0684297904
2536.30714	0.0684805214
2534.87743	0.0685350522
2533.44772	0.0685973465
2532.01801	0.0686654970
2530.58829	0.0687335432
2529.15858	0.0687951967
2527.72887	0.0688486397
2526.29916	0.0688975975
2524.86945	0.0689479932
2523.43974	0.0690035447
2522.01003	0.0690638721
2520.58032	0.0691247880
2519.15061	0.0691811517
2517.72090	0.0692292079
2516.29119	0.0692667961
2514.86147	0.0692944303
2513.43176	0.0693145618
2512.00205	0.0693316236
2510.57234	0.0693505406
2509.14263	0.0693763867
2507.71292	0.0694138929
2506.28321	0.0694670826
2504.85350	0.0695376843
2503.42379	0.0696226954
2501.99408	0.0697137713
2500.56437	0.0697996765
2499.13465	0.0698706284
2497.70494	0.0699218065
2496.27523	0.0699547678
2494.84552	0.0699767545
2493.41581	0.0699985325
2491.98610	0.0700311661
2490.55639	0.0700835139
2489.12668	0.0701597482
2487.69697	0.0702579767
2486.26726	0.0703698248
2484.83755	0.0704815462
2483.40784	0.0705777109
2481.97812	0.0706463009
2480.54841	0.0706844032
2479.11870	0.0707010403
2477.68899	0.0707131028
2476.25928	0.0707379282
2474.82957	0.0707856119
2473.39986	0.0708560869
2471.97015	0.0709429756
2470.54044	0.0710368007
2469.11073	0.0711283013
2467.68102	0.0712091103
2466.25130	0.0712736249
2464.82159	0.0713222474
2463.39188	0.0713619962
2461.96217	0.0714037344
2460.53246	0.0714545399
2459.10275	0.0715126172
2457.67304	0.0715684667
2456.24333	0.0716120601
2454.81362	0.0716403872
2453.38391	0.0716603845
2451.95420	0.0716843531
2450.52448	0.0717219040
2449.09477	0.0717751011
2447.66506	0.0718373731
2446.23535	0.0718987063
2444.80564	0.0719493553
2443.37593	0.0719840601
2441.94622	0.0720031559
2440.51651	0.0720124766
2439.08680	0.0720202699
2437.65709	0.0720323399
2436.22738	0.0720478594
2434.79766	0.0720600188
2433.36795	0.0720618218
2431.93824	0.0720543414
2430.50853	0.0720489621
2429.07882	0.0720604807
2427.64911	0.0720965117
2426.21940	0.0721508190
2424.78969	0.0722083151
2423.35998	0.0722552985
2421.93027	0.0722882599
2420.50056	0.0723119527
2419.07084	0.0723321065
2417.64113	0.0723499581
2416.21142	0.0723631084
2414.78171	0.0723703876
2413.35200	0.0723736584
2411.92229	0.0723757967
2410.49258	0.0723768696
2409.06287	0.0723732337
2407.63316	0.0723626539
2406.20345	0.0723481551
2404.77374	0.0723378807
2403.34402	0.0723401755
2401.91431	0.0723573938
2400.48460	0.0723844245
2399.05489	0.0724115521
2397.62518	0.0724309683
2396.19547	0.0724401772
2394.76576	0.0724415854
2393.33605	0.0724382773
2391.90634	0.0724298730
2390.47663	0.0724111795
2389.04692	0.0723735094
2387.61720	0.0723086521
2386.18749	0.0722114295
2384.75778	0.0720823333
2383.32807	0.0719248205
2381.89836	0.0717438906
2380.46865	0.0715426505
2379.03894	0.0713216364
2377.60923	0.0710820183
2376.17952	0.0708291233
2374.74981	0.0705748796
2373.32010	0.0703332052
2371.89038	0.0701103136
2370.46067	0.0698985457
2369.03096	0.0696802214
2367.60125	0.0694451183
2366.17154	0.0692093894
2364.74183	0.0690126494
2363.31212	0.0688948408
2361.88241	0.0688723922
2360.45270	0.0689408630
2359.02299	0.0691038147
2357.59328	0.0693795457
2356.16356	0.0697618276
2354.73385	0.0701781288
2353.30414	0.0705140084
2351.87443	0.0706850439
2350.44472	0.0706763640
2349.01501	0.0705266446
2347.58530	0.0702996328
2346.15559	0.0700652972
2344.72588	0.0698870793
2343.29617	0.0698051453
2341.86646	0.0698187351
2340.43674	0.0698885396
2339.00703	0.0699667186
2337.57732	0.0700219199
2336.14761	0.0700449124
2334.71790	0.0700423867
2333.28819	0.0700290054
2331.85848	0.0700213090
2330.42877	0.0700328425
2328.99906	0.0700732023
2327.56935	0.0701464862
2326.13964	0.0702507272
2324.70993	0.0703763962
2323.28021	0.0705078244
2321.85050	0.0706292093
2320.42079	0.0707305893
2318.99108	0.0708104447
2317.56137	0.0708720908
2316.13166	0.0709196329
2314.70195	0.0709557459
2313.27224	0.0709822327
2311.84253	0.0710021704
2310.41282	0.0710199773
2308.98311	0.0710398853
2307.55339	0.0710634813
2306.12368	0.0710892081
2304.69397	0.0711132959
2303.26426	0.0711330920
2301.83455	0.0711479113
2300.40484	0.0711586103
2298.97513	0.0711648315
2297.54542	0.0711638555
2296.11571	0.0711521134
2294.68600	0.0711286068
2293.25629	0.0710963756
2291.82657	0.0710612833
2290.39686	0.0710295811
2288.96715	0.0710060149
2287.53744	0.0709920228
2286.10773	0.0709849522
2284.67802	0.0709783658
2283.24831	0.0709654093
2281.81860	0.0709425211
2280.38889	0.0709106103
2278.95918	0.0708729997
2277.52947	0.0708323196
2276.09975	0.0707898140
2274.67004	0.0707478002
2273.24033	0.0707111508
2271.81062	0.0706849843
2270.38091	0.0706721619
2268.95120	0.0706711560
2267.52149	0.0706780404
2266.09178	0.0706866607
2264.66207	0.0706895515
2263.23236	0.0706780404
2261.80265	0.0706458464
2260.37293	0.0705931187
2258.94322	0.0705279261
2257.51351	0.0704617873
2256.08380	0.0704043433
2254.65409	0.0703598708
2253.22438	0.0703276396
2251.79467	0.0703037158
2250.36496	0.0702827424
2248.93525	0.0702590346
2247.50554	0.0702300668
2246.07583	0.0701974481
2244.64611	0.0701667517
2243.21640	0.0701437816
2241.78669	0.0701316372
2240.35698	0.0701297224
2238.92727	0.0701347440
2237.49756	0.0701421648
2236.06785	0.0701464564
2234.63814	0.0701419860
2233.20843	0.0701244920
2231.77872	0.0700928867
2230.34901	0.0700504780
2228.91929	0.0700043738
2227.48958	0.0699624047
2226.05987	0.0699300170
2224.63016	0.0699073002
2223.20045	0.0698886961
2221.77074	0.0698666200
2220.34103	0.0698355809
2218.91132	0.0697950199
2217.48161	0.0697494596
2216.05190	0.0697059035
2214.62219	0.0696718320
2213.19247	0.0696523264
2211.76276	0.0696489513
2210.33305	0.0696576387
2208.90334	0.0696698874
2207.47363	0.0696753561
2206.04392	0.0696658194
2204.61421	0.0696378276
2203.18450	0.0695934966
2201.75479	0.0695395619
2200.32508	0.0694847926
2198.89537	0.0694367066
2197.46565	0.0693987384
2196.03594	0.0693680048
2194.60623	0.0693363324
2193.17652	0.0692938790
2191.74681	0.0692340359
2190.31710	0.0691580549
2188.88739	0.0690757707
2187.45768	0.0690033361
2186.02797	0.0689549670
2184.59826	0.0689362511
2183.16855	0.0689409822
2181.73883	0.0689558461
2180.30912	0.0689673200
2178.87941	0.0689667389
2177.44970	0.0689502954
2176.01999	0.0689162537
2174.59028	0.0688641071
2173.16057	0.0687956512
2171.73086	0.0687161982
2170.30115	0.0686338469
2168.87144	0.0685572103
2167.44173	0.0684939846
2166.01202	0.0684497058
2164.58230	0.0684257299
2163.15259	0.0684170350
2161.72288	0.0684126690
2160.29317	0.0683996156
2158.86346	0.0683696419
2157.43375	0.0683223531
2156.00404	0.0682650656
2154.57433	0.0682079941
2153.14462	0.0681598112
2151.71491	0.0681242570
2150.28520	0.0680987015
2148.85548	0.0680753887
2147.42577	0.0680449903
2145.99606	0.0680003911
2144.56635	0.0679402128
2143.13664	0.0678681731
2141.70693	0.0677911639
2140.27722	0.0677146390
2138.84751	0.0676410422
2137.41780	0.0675703883
2135.98809	0.0675033703
2134.55838	0.0674446821
2133.12866	0.0674023852
2131.69895	0.0673820674
2130.26924	0.0673799515
2128.83953	0.0673817396
2127.40982	0.0673698559
2125.98011	0.0673346967
2124.55040	0.0672795400
2123.12069	0.0672157705
2121.69098	0.0671530142
2120.26127	0.0670939460
2118.83156	0.0670383051
2117.40184	0.0669883117
2115.97213	0.0669498965
2114.54242	0.0669257641
2113.11271	0.0669108182
2111.68300	0.0668936968
2110.25329	0.0668644086
2108.82358	0.0668211132
2107.39387	0.0667707548
2105.96416	0.0667232722
2104.53445	0.0666861758
2103.10474	0.0666620284
2101.67502	0.0666484162
2100.24531	0.0666395128
2098.81560	0.0666276589
2097.38589	0.0666058362
2095.95618	0.0665700212
2094.52647	0.0665199310
2093.09676	0.0664588735
2091.66705	0.0663915426
2090.23734	0.0663235933
2088.80763	0.0662607849
2087.37792	0.0662079006
2085.94820	0.0661665946
2084.51849	0.0661337078
2083.08878	0.0661028102
2081.65907	0.0660684854
2080.22936	0.0660290048
2078.79965	0.0659876540
2077.36994	0.0659491196
2075.94023	0.0659172982
2074.51052	0.0658924729
2073.08081	0.0658714175
2071.65110	0.0658480376
2070.22138	0.0658150539
2068.79167	0.0657672584
2067.36196	0.0657045841
2065.93225	0.0656331852
2064.50254	0.0655625015
2063.07283	0.0654994622
2061.64312	0.0654457733
2060.21341	0.0653985217
2058.78370	0.0653552189
2057.35399	0.0653158352
2055.92428	0.0652815998
2054.49456	0.0652511194
2053.06485	0.0652184859
2051.63514	0.0651765540
2050.20543	0.0651226267
2048.77572	0.0650613084
2047.34601	0.0650022328
2045.91630	0.0649532527
2044.48659	0.0649147779
2043.05688	0.0648795217
2041.62717	0.0648378655
2040.19746	0.0647845790
2038.76774	0.0647233129
2037.33803	0.0646660775
2035.90832	0.0646263361
2034.47861	0.0646111965
2033.04890	0.0646154583
2031.61919	0.0646237805
2030.18948	0.0646179244
2028.75977	0.0645880029
2027.33006	0.0645368248
2025.90035	0.0644764602
2024.47064	0.0644201040
2023.04092	0.0643745586
2021.61121	0.0643402711
2020.18150	0.0643140674
2018.75179	0.0642941967
2017.32208	0.0642791018
2015.89237	0.0642656833
2014.46266	0.0642476156
2013.03295	0.0642170310
2011.60324	0.0641703680
2010.17353	0.0641117319
2008.74382	0.0640523583
2007.31411	0.0640051141
2005.88439	0.0639773682
2004.45468	0.0639681593
2003.02497	0.0639691800
2001.59526	0.0639692098
2000.16555	0.0639583841
1998.73584	0.0639306083
1997.30613	0.0638863146
1995.87642	0.0638341084
1994.44671	0.0637880564
1993.01700	0.0637614280
1991.58729	0.0637590662
1990.15757	0.0637763292
1988.72786	0.0638047531
1987.29815	0.0638380051
1985.86844	0.0638724938
1984.43873	0.0639033467
1983.00902	0.0639232919
1981.57931	0.0639268607
1980.14960	0.0639157668
1978.71989	0.0638988465
1977.29018	0.0638858676
1975.86047	0.0638814867
1974.43075	0.0638829246
1973.00104	0.0638850853
1971.57133	0.0638845190
1970.14162	0.0638834089
1968.71191	0.0638878420
1967.28220	0.0639041588
1965.85249	0.0639331564
1964.42278	0.0639686137
1962.99307	0.0640001372
1961.56336	0.0640198439
1960.13365	0.0640260503
1958.70393	0.0640219450
1957.27422	0.0640126467
1955.84451	0.0640029833
1954.41480	0.0639967173
1952.98509	0.0639960244
1951.55538	0.0639994144
1950.12567	0.0640023574
1948.69596	0.0640010685
1947.26625	0.0639989376
1945.83654	0.0640075132
1944.40683	0.0640406311
1942.97711	0.0641047433
1941.54740	0.0641924217
1940.11769	0.0642858818
1938.68798	0.0643663034
1937.25827	0.0644224435
1935.82856	0.0644536689
1934.39885	0.0644667670
1932.96914	0.0644706413
1931.53943	0.0644707903
1930.10972	0.0644681752
1928.68001	0.0644621402
1927.25029	0.0644539744
1925.82058	0.0644468591
1924.39087	0.0644436702
1922.96116	0.0644465238
1921.53145	0.0644582957
1920.10174	0.0644836426
1918.67203	0.0645243898
1917.24232	0.0645748824
1915.81261	0.0646253154
1914.38290	0.0646700412
1912.95319	0.0647140592
1911.52347	0.0647683516
1910.09376	0.0648394227
1908.66405	0.0649219602
1907.23434	0.0650009066
1905.80463	0.0650616437
1904.37492	0.0650991723
1902.94521	0.0651202202
1901.51550	0.0651396513
1900.08579	0.0651717409
1898.65608	0.0652212203
1897.22637	0.0652793720
1895.79665	0.0653300360
1894.36694	0.0653629228
1892.93723	0.0653827861
1891.50752	0.0654067695
1890.07781	0.0654523298
1888.64810	0.0655254126
1887.21839	0.0656174719
1885.78868	0.0657129884
1884.35897	0.0657984316
1882.92926	0.0658690706
1881.49955	0.0659295619
1880.06983	0.0659894049
1878.64012	0.0660537779
1877.21041	0.0661166459
1875.78070	0.0661647916
1874.35099	0.0661899894
1872.92128	0.0661994889
1871.49157	0.0662158579
1870.06186	0.0662644356
1868.63215	0.0663556531
1867.20244	0.0664753765
1865.77273	0.0665963888
1864.34301	0.0666993037
1862.91330	0.0667827353
1861.48359	0.0668592453
1860.05388	0.0669428259
1858.62417	0.0670388490
1857.19446	0.0671388730
1855.76475	0.0672276765
1854.33504	0.0672938377
1852.90533	0.0673343092
1851.47562	0.0673519894
1850.04591	0.0673513860
1848.61619	0.0673428625
1847.18648	0.0673483014
1845.75677	0.0673968792
1844.32706	0.0675040632
1842.89735	0.0676541403
1841.46764	0.0678099841
1840.03793	0.0679429024
1838.60822	0.0680465028
1837.17851	0.0681267753
1835.74880	0.0681905225
1834.31909	0.0682431906
1832.88938	0.0682949945
1831.45966	0.0683623105
1830.02995	0.0684610084
1828.60024	0.0685956776
1827.17053	0.0687566474
1825.74082	0.0689273924
1824.31111	0.0690930113
1822.88140	0.0692437217
1821.45169	0.0693773925
1820.02198	0.0694977939
1818.59227	0.0696102381
1817.16256	0.0697151124
1815.73284	0.0698081851
1814.30313	0.0698904246
1812.87342	0.0699763596
1811.44371	0.0700858533
1810.01400	0.0702245608
1808.58429	0.0703737214
1807.15458	0.0705053285
1805.72487	0.0706073418
1804.29516	0.0706909522
1802.86545	0.0707768351
1801.43574	0.0708753765
1800.00602	0.0709793419
1798.57631	0.0710766166
1797.14660	0.0711679757
1795.71689	0.0712748691
1794.28718	0.0714297965
1792.85747	0.0716517791
1791.42776	0.0719200894
1789.99805	0.0721783563
1788.56834	0.0723775402
1787.13863	0.0725128502
1785.70892	0.0726219192
1784.27920	0.0727551281
1782.84949	0.0729397908
1781.41978	0.0731614158
1779.99007	0.0733777508
1778.56036	0.0735521317
1777.13065	0.0736749247
1775.70094	0.0737669170
1774.27123	0.0738726482
1772.84152	0.0740459338
1771.41181	0.0743165016
1769.98210	0.0746577755
1768.55238	0.0750053227
1767.12267	0.0753129050
1765.69296	0.0755783767
1764.26325	0.0758289099
1762.83354	0.0760954320
1761.40383	0.0763970613
1759.97412	0.0767397061
1758.54441	0.0771189705
1757.11470	0.0775204152
1755.68499	0.0779244304
1754.25528	0.0783220306
1752.82556	0.0787337124
1751.39585	0.0792057365
1749.96614	0.0797720477
1748.53643	0.0804126039
1747.10672	0.0810665935
1745.67701	0.0816886276
1744.24730	0.0822743028
1742.81759	0.0828339756
1741.38788	0.0833640173
1739.95817	0.0838526264
1738.52846	0.0843094736
1737.09874	0.0847839788
1735.66903	0.0853478462
1734.23932	0.0860492289
1732.80961	0.0868716612
1731.37990	0.0877484605
1729.95019	0.0886252299
1728.52048	0.0894898027
1727.09077	0.0903533250
1725.66106	0.0912235230
1724.23135	0.0920980275
1722.80164	0.0929806456
1721.37192	0.0939109474
1719.94221	0.0949878991
1718.51250	0.0963403061
1717.08279	0.0980005562
1715.65308	0.0997870341
1714.22337	0.1014294773
1712.79366	0.1028086543
1711.36395	0.1039879993
1709.93424	0.1050955430
1708.50453	0.1062386706
1707.07482	0.1074844375
1705.64510	0.1088820770
1704.21539	0.1105034575
1702.78568	0.1124725938
1701.35597	0.1149454713
1699.92626	0.1180056408
1698.49655	0.1215052009
1697.06684	0.1250534505
1695.63713	0.1282688081
1694.20742	0.1310051680
1692.77771	0.1333220452
1691.34800	0.1353601068
1689.91828	0.1372885406
1688.48857	0.1393243372
1687.05886	0.1417477131
1685.62915	0.1447900981
1684.19944	0.1483428329
1682.76973	0.1518613398
1681.34002	0.1548459083
1679.91031	0.1572695076
1678.48060	0.1594223976
1677.05089	0.1616011411
1675.62118	0.1639637500
1674.19147	0.1665372103
1672.76175	0.1692995578
1671.33204	0.1722287685
1669.90233	0.1752565205
1668.47262	0.1782394499
1667.04291	0.1810568273
1665.61320	0.1837220490
1664.18349	0.1863335967
1662.75378	0.1889005452
1661.32407	0.1912453175
1659.89436	0.1931155026
1658.46465	0.1943749636
1657.03493	0.1950463355
1655.60522	0.1952082813
1654.17551	0.1948907226
1652.74580	0.1940846741
1651.31609	0.1928432882
1649.88638	0.1912909597
1648.45667	0.1895258576
1647.02696	0.1876135021
1645.59725	0.1856485903
1644.16754	0.1837444156
1642.73783	0.1819503158
1641.30811	0.1802154481
1639.87840	0.1784249544
1638.44869	0.1764612943
1637.01898	0.1742771417
1635.58927	0.1719546467
1634.15956	0.1696392447
1632.72985	0.1673774272
1631.30014	0.1650751978
1629.87043	0.1625819504
1628.44072	0.1597584933
1627.01101	0.1565194875
1625.58129	0.1528861076
1624.15158	0.1490111500
1622.72187	0.1450972259
1621.29216	0.1412547231
1619.86245	0.1374498606
1618.43274	0.1336011589
1617.00303	0.1297394484
1615.57332	0.1260670722
1614.14361	0.1228081733
1612.71390	0.1200168878
1611.28419	0.1175748408
1609.85447	0.1153336316
1608.42476	0.1132295355
1606.99505	0.1112939268
1605.56534	0.1095844358
1604.13563	0.1081167310
1602.70592	0.1068624333
1601.27621	0.1057882011
1599.84650	0.1048765853
1598.41679	0.1041142195
1596.98708	0.1034803241
1595.55737	0.1029558182
1594.12765	0.1025373861
1592.69794	0.1022345796
1591.26823	0.1020537987
1589.83852	0.1019927338
1588.40881	0.1020479351
1586.97910	0.1022155136
1585.54939	0.1024791077
1584.11968	0.1028043255
1582.68997	0.1031596884
1581.26026	0.1035496816
1579.83055	0.1040274054
1578.40083	0.1046658158
1576.97112	0.1054917648
1575.54141	0.1064408794
1574.11170	0.1074072272
1572.68199	0.1083504185
1571.25228	0.1093227938
1569.82257	0.1103921309
1568.39286	0.1115447581
1566.96315	0.1126741096
1565.53344	0.1136757284
1564.10373	0.1145533100
1562.67401	0.1154544130
1561.24430	0.1166560203
1559.81459	0.1184449345
1558.38488	0.1207772940
1556.95517	0.1231040582
1555.52546	0.1249108166
1554.09575	0.1261486113
1552.66604	0.1269928515
1551.23633	0.1275644153
1549.80662	0.1278802156
1548.37691	0.1279125661
1546.94719	0.1276474595
1545.51748	0.1270934343
1544.08777	0.1262495816
1542.65806	0.1250979453
1541.22835	0.1236833930
1539.79864	0.1221867502
1538.36893	0.1207895949
1536.93922	0.1195056736
1535.50951	0.1182368547
1534.07980	0.1169020683
1532.65009	0.1154903099
1531.22037	0.1140385196
1529.79066	0.1125767827
1528.36095	0.1110977083
1526.93124	0.1095757410
1525.50153	0.1080069095
1524.07182	0.1064347625
1522.64211	0.1049374640
1521.21240	0.1035823077
1519.78269	0.1023755148
1518.35298	0.1012532860
1516.92327	0.1001202837
1515.49356	0.0989022553
1514.06384	0.0975660011
1512.63413	0.0960936546
1511.20442	0.0944366679
1509.77471	0.0925049186
1508.34500	0.0902686492
1506.91529	0.0879550800
1505.48558	0.0859853923
1504.05587	0.0845515057
1502.62616	0.0835027918
1501.19645	0.0826068670
1499.76674	0.0817231536
1498.33702	0.0808260888
1496.90731	0.0799647868
1495.47760	0.0791869685
1494.04789	0.0784888193
1492.61818	0.0778377727
1491.18847	0.0772271305
1489.75876	0.0766999200
1488.32905	0.0763179958
1486.89934	0.0761017576
1485.46963	0.0760124400
1484.03992	0.0759926736
1482.61020	0.0760088339
1481.18049	0.0760586411
1479.75078	0.0761592239
1478.32107	0.0763370022
1476.89136	0.0766282082
1475.46165	0.0770759657
1474.03194	0.0776952878
1472.60223	0.0784150138
1471.17252	0.0790917426
1469.74281	0.0796134025
1468.31310	0.0799631998
1466.88338	0.0801893398
1465.45367	0.0803511143
1464.02396	0.0804840103
1462.59425	0.0805960968
1461.16454	0.0806911215
1459.73483	0.0807923153
1458.30512	0.0809351057
1456.87541	0.0811195076
1455.44570	0.0812775418
1454.01599	0.0813273266
1452.58628	0.0812413022
1451.15656	0.0810397938
1449.72685	0.0807582140
1448.29714	0.0804322958
1446.86743	0.0800931081
1445.43772	0.0797567070
1444.00801	0.0794171840
1442.57830	0.0790509656
1441.14859	0.0786318779
1439.71888	0.0781476498
1438.28917	0.0776169375
1436.85946	0.0770966485
1435.42974	0.0766602978
1434.00003	0.0763568506
1432.57032	0.0761940181
1431.14061	0.0761553943
1429.71090	0.0762204006
1428.28119	0.0763672143
1426.85148	0.0765703693
1425.42177	0.0768073276
1423.99206	0.0770693794
1422.56235	0.0773688108
1421.13264	0.0777327418
1419.70292	0.0781816468
1418.27321	0.0787008852
1416.84350	0.0792392269
1415.41379	0.0797443315
1413.98408	0.0801944435
1412.55437	0.0805970579
1411.12466	0.0809687972
1409.69495	0.0813208669
1408.26524	0.0816549212
1406.83553	0.0819658414
1405.40582	0.0822438300
1403.97610	0.0824721903
1402.54639	0.0826291889
1401.11668	0.0826947913
1399.68697	0.0826586857
1398.25726	0.0825239941
1396.82755	0.0823048055
1395.39784	0.0820227489
1393.96813	0.0816988796
1392.53842	0.0813432857
1391.10871	0.0809502378
1389.67900	0.0805042014
1388.24928	0.0799945369
1386.81957	0.0794293657
1385.38986	0.0788362846
1383.96015	0.0782455876
1382.53044	0.0776737407
1381.10073	0.0771227702
1379.67102	0.0765925124
1378.24131	0.0760903135
1376.81160	0.0756320134
1375.38189	0.0752377883
1373.95218	0.0749250352
1372.52246	0.0746986642
1371.09275	0.0745444149
1369.66304	0.0744303167
1368.23333	0.0743191689
1366.80362	0.0741874725
1365.37391	0.0740390569
1363.94420	0.0739060044
1362.51449	0.0738292262
1361.08478	0.0738293529
1359.65507	0.0738922879
1358.22536	0.0739831924
1356.79565	0.0740705580
1355.36593	0.0741396621
1353.93622	0.0741920471
1352.50651	0.0742370710
1351.07680	0.0742833242
1349.64709	0.0743309036
1348.21738	0.0743701309
1346.78767	0.0743854642
1345.35796	0.0743655860
1343.92825	0.0743138865
1342.49854	0.0742532536
1341.06883	0.0742225125
1339.63911	0.0742589682
1338.20940	0.0743757263
1336.77969	0.0745505020
1335.34998	0.0747414008
1333.92027	0.0749157742
1332.49056	0.0750676915
1331.06085	0.0752150118
1329.63114	0.0753833205
1328.20143	0.0755869150
1326.77172	0.0758222789
1325.34201	0.0760724247
1323.91229	0.0763196945
1322.48258	0.0765546262
1321.05287	0.0767785907
1319.62316	0.0769998953
1318.19345	0.0772269070
1316.76374	0.0774619952
1315.33403	0.0777004883
1313.90432	0.0779327303
1312.47461	0.0781501606
1311.04490	0.0783490017
1309.61519	0.0785319284
1308.18547	0.0787066221
1306.75576	0.0788827166
1305.32605	0.0790677369
1303.89634	0.0792630836
1302.46663	0.0794623122
1301.03692	0.0796538889
1299.60721	0.0798264220
1298.17750	0.0799730942
1296.74779	0.0800938532
1295.31808	0.0801933557
1293.88837	0.0802791417
1292.45865	0.0803586543
1291.02894	0.0804374665
1289.59923	0.0805176273
1288.16952	0.0805980563
1286.73981	0.0806765035
1285.31010	0.0807515979
1283.88039	0.0808221921
1282.45068	0.0808878317
1281.02097	0.0809494853
1279.59126	0.0810128078
1278.16155	0.0810888335
1276.73183	0.0811900273
1275.30212	0.0813254267
1273.87241	0.0814983696
1272.44270	0.0817102194
1271.01299	0.0819651857
1269.58328	0.0822708607
1268.15357	0.0826355442
1266.72386	0.0830646232
1265.29415	0.0835599229
1263.86444	0.0841191560
1262.43473	0.0847354606
1261.00501	0.0853952691
1259.57530	0.0860797167
1258.14559	0.0867676511
1256.71588	0.0874399245
1255.28617	0.0880790949
1253.85646	0.0886668488
1252.42675	0.0891825035
1250.99704	0.0896045864
1249.56733	0.0899145976
1248.13762	0.0900998563
1246.70791	0.0901559517
1245.27819	0.0900878757
1243.84848	0.0899111927
1242.41877	0.0896484330
1240.98906	0.0893228650
1239.55935	0.0889512524
1238.12964	0.0885404423
1236.69993	0.0880926624
1235.27022	0.0876131654
1233.84051	0.0871174037
1232.41080	0.0866279826
1230.98109	0.0861641169
1229.55137	0.0857301950
1228.12166	0.0853121802
1226.69195	0.0848851502
1225.26224	0.0844272301
1223.83253	0.0839304700
1222.40282	0.0834021866
1220.97311	0.0828584731
1219.54340	0.0823150650
1218.11369	0.0817835554
1216.68398	0.0812715814
1215.25427	0.0807859302
1213.82455	0.0803332105
1212.39484	0.0799186677
1210.96513	0.0795448497
1209.53542	0.0792118236
1208.10571	0.0789189488
1206.67600	0.0786660686
1205.24629	0.0784543678
1203.81658	0.0782880858
1202.38687	0.0781754181
1200.95716	0.0781283751
1199.52745	0.0781600177
1198.09774	0.0782785341
1196.66802	0.0784835517
1195.23831	0.0787677839
1193.80860	0.0791208744
1192.37889	0.0795335621
1190.94918	0.0799974948
1189.51947	0.0805018321
1188.08976	0.0810337365
1186.66005	0.0815829188
1185.23034	0.0821496174
1183.80063	0.0827473998
1182.37092	0.0833981708
1180.94120	0.0841217637
1179.51149	0.0849253759
1178.08178	0.0858009383
1176.65207	0.0867277607
1175.22236	0.0876798406
1173.79265	0.0886330381
1172.36294	0.0895708278
1170.93323	0.0904867649
1169.50352	0.0913857594
1168.07381	0.0922799930
1166.64410	0.0931842476
1165.21438	0.0941110998
1163.78467	0.0950680524
1162.35496	0.0960567072
1160.92525	0.0970722735
1159.49554	0.0981046706
1158.06583	0.0991403013
1156.63612	0.1001665071
1155.20641	0.1011755690
1153.77670	0.1021669060
1152.34699	0.1031473503
1150.91728	0.1041280702
1149.48756	0.1051222831
1148.05785	0.1061427072
1146.62814	0.1072020829
1145.19843	0.1083126143
1143.76872	0.1094871685
1142.33901	0.1107350886
1140.90930	0.1120595708
1139.47959	0.1134570763
1138.04988	0.1149220616
1136.62017	0.1164533347
1135.19046	0.1180563942
1133.76074	0.1197372153
1132.33103	0.1214937940
1130.90132	0.1233121753
1129.47161	0.1251710057
1128.04190	0.1270503551
1126.61219	0.1289378703
1125.18248	0.1308283806
1123.75277	0.1327206492
1122.32306	0.1346143186
1120.89335	0.1365078092
1119.46364	0.1383954883
1118.03392	0.1402632296
1116.60421	0.1420906782
1115.17450	0.1438589096
1113.74479	0.1455627531
1112.31508	0.1472144872
1110.88537	0.1488347501
1109.45566	0.1504330039
1108.02595	0.1519930512
1106.59624	0.1534752995
1105.16653	0.1548347473
1103.73682	0.1560435891
1102.30710	0.1571000218
1100.87739	0.1580221206
1099.44768	0.1588340104
1098.01797	0.1595551819
1096.58826	0.1601998061
1095.15855	0.1607768536
1093.72884	0.1612884253
1092.29913	0.1617249101
1090.86942	0.1620634645
1089.43971	0.1622725874
1088.01000	0.1623198241
1086.58028	0.1621803641
1085.15057	0.1618405879
1083.72086	0.1613014191
1082.29115	0.1605762094
1080.86144	0.1596874446
1079.43173	0.1586581618
1078.00202	0.1575059295
1076.57231	0.1562411934
1075.14260	0.1548709124
1073.71289	0.1534023583
1072.28318	0.1518443823
1070.85346	0.1502062529
1069.42375	0.1484982520
1067.99404	0.1467322856
1066.56433	0.1449177265
1065.13462	0.1430533230
1063.70491	0.1411195695
1062.27520	0.1390836984
1060.84549	0.1369165182
1059.41578	0.1346106082
1057.98607	0.1321845502
1056.55636	0.1296725422
1055.12664	0.1271079034
1053.69693	0.1245155185
1052.26722	0.1219158918
1050.83751	0.1193315387
1049.40780	0.1167885438
1047.97809	0.1143098623
1046.54838	0.1119082198
1045.11867	0.1095867380
1043.68896	0.1073446795
1042.25925	0.1051853001
1040.82954	0.1031188220
1039.39983	0.1011588424
1037.97011	0.0993159935
1036.54040	0.0975940302
1035.11069	0.0959894136
1033.68098	0.0944934934
1032.25127	0.0930942073
1030.82156	0.0917776227
1029.39185	0.0905310884
1027.96214	0.0893479213
1026.53243	0.0882320404
1025.10272	0.0871976987
1023.67301	0.0862645432
1022.24329	0.0854512304
1020.81358	0.0847710744
1019.38387	0.0842301100
1017.95416	0.0838289782
1016.52445	0.0835678354
1015.09474	0.0834518746
1013.66503	0.0834948570
1012.23532	0.0837145522
1010.80561	0.0841239020
1009.37590	0.0847232863
1007.94619	0.0854998603
1006.51647	0.0864347294
1005.08676	0.0875080600
1003.65705	0.0886987895
1002.22734	0.0899799094
1000.79763	0.0913140401
999.36792	0.0926543027
997.93821	0.0939502791
996.50850	0.0951524824
995.07879	0.0962157473
993.64908	0.0970999226
992.21937	0.0977691710
990.78965	0.0981929302
989.35994	0.0983507186
987.93023	0.0982353166
986.50052	0.0978574306
985.07081	0.0972430930
983.64110	0.0964277312
982.21139	0.0954466462
980.78168	0.0943274200
979.35197	0.0930876285
977.92226	0.0917400867
976.49255	0.0903017595
975.06283	0.0888011977
973.63312	0.0872774795
972.20341	0.0857690200
970.77370	0.0842982456
969.34399	0.0828648061
967.91428	0.0814544335
966.48457	0.0800594911
965.05486	0.0786949545
963.62515	0.0773997456
962.19544	0.0762188882
960.76573	0.0751835853
959.33601	0.0743000060
957.90630	0.0735528693
956.47659	0.0729192719
955.04688	0.0723810568
953.61717	0.0719313025
952.18746	0.0715708807
950.75775	0.0713022053
949.32804	0.0711239129
947.89833	0.0710287243
946.46862	0.0710030273
945.03891	0.0710271075
943.60919	0.0710748211
942.17948	0.0711155534
940.74977	0.0711211339
939.32006	0.0710732639
937.89035	0.0709686130
936.46064	0.0708169639
935.03093	0.0706350282
933.60122	0.0704387128
932.17151	0.0702381954
930.74180	0.0700363368
929.31209	0.0698313192
927.88237	0.0696213543
926.45266	0.0694087297
925.02295	0.0692007318
923.59324	0.0690062493
922.16353	0.0688302293
920.73382	0.0686710477
919.30411	0.0685188621
917.87440	0.0683554932
916.44469	0.0681563020
915.01498	0.0678978339
913.58527	0.0675700828
912.15555	0.0671899691
910.72584	0.0668026954
909.29613	0.0664669871
907.86642	0.0662310272
906.43671	0.0661135763
905.00700	0.0661026910
903.57729	0.0661721751
902.14758	0.0663017929
900.71787	0.0664878935
899.28816	0.0667377263
897.85845	0.0670557320
896.42873	0.0674332827
894.99902	0.0678529218
893.56931	0.0683014765
892.13960	0.0687795132
890.70989	0.0692972243
889.28018	0.0698595941
887.85047	0.0704546943
886.42076	0.0710532069
884.99105	0.0716204569
883.56134	0.0721309558
882.13163	0.0725783780
880.70192	0.0729763806
879.27220	0.0733520687
877.84249	0.0737334490
876.41278	0.0741363168
874.98307	0.0745570213
873.55336	0.0749759749
872.12365	0.0753705129
870.69394	0.0757241473
869.26423	0.0760265365
867.83452	0.0762658119
866.40481	0.0764249042
864.97510	0.0764870718
863.54538	0.0764451846
862.11567	0.0763045400
860.68596	0.0760752931
859.25625	0.0757630691
857.82654	0.0753694400
856.39683	0.0749023333
854.96712	0.0743840784
853.53741	0.0738483146
852.10770	0.0733256191
850.67799	0.0728292018
849.24828	0.0723527148
847.81856	0.0718807131
846.38885	0.0714014769
844.95914	0.0709134117
843.52943	0.0704222396
842.09972	0.0699355528
840.67001	0.0694595799
839.24030	0.0689985678
837.81059	0.0685562417
836.38088	0.0681334957
834.95117	0.0677287430
833.52146	0.0673394129
832.09174	0.0669641793
830.66203	0.0666016415
829.23232	0.0662451684
827.80261	0.0658789501
826.37290	0.0654857084
824.94319	0.0650623962
823.51348	0.0646319538
822.08377	0.0642373785
820.65406	0.0639192164
819.22435	0.0636914968
817.79464	0.0635359809
816.36492	0.0634172857
814.93521	0.0633065477
813.50550	0.0631942600
812.07579	0.0630875304
810.64608	0.0629982501
809.21637	0.0629356503
807.78666	0.0629036352
806.35695	0.0629025549
804.92724	0.0629264936
803.49753	0.0629617125
802.06782	0.0629874468
800.63810	0.0629844889
799.20839	0.0629473776
797.77868	0.0628914535
796.34897	0.0628487319
794.91926	0.0628526807
793.48955	0.0629185662
792.05984	0.0630354211
790.63013	0.0631733313
789.20042	0.0633015484
787.77071	0.0634027570
786.34100	0.0634746850
784.91128	0.0635223240
783.48157	0.0635483563
782.05186	0.0635506660
780.62215	0.0635263920
779.19244	0.0634767488
777.76273	0.0634117126
776.33302	0.0633491948
774.90331	0.0633096024
773.47360	0.0633075684
772.04389	0.0633449182
770.61418	0.0634127557
769.18446	0.0635011941
767.75475	0.0636083558
766.32504	0.0637398437
764.89533	0.0638980120
763.46562	0.0640716478
762.03591	0.0642367154
760.60620	0.0643682852
759.17649	0.0644538254
757.74678	0.0644990727
756.31707	0.0645216629
754.88736	0.0645419285
753.45764	0.0645739213
752.02793	0.0646208376
750.59822	0.0646744594
749.16851	0.0647199452
747.73880	0.0647420585
746.30909	0.0647340417
744.87938	0.0647017062
743.44967	0.0646623522
742.01996	0.0646383837
740.59025	0.0646474808
739.16054	0.0646950975
737.73082	0.0647735223
736.30111	0.0648690313
734.87140	0.0649730042
733.44169	0.0650886446
732.01198	0.0652284399
730.58227	0.0654063448
729.15256	0.0656296685
727.72285	0.0658965409
726.29314	0.0661966205
724.86343	0.0665135980
723.43372	0.0668301955
722.00401	0.0671331882
720.57429	0.0674203113
719.14458	0.0676993355
717.71487	0.0679803491
716.28516	0.0682653338
714.85545	0.0685460865
713.42574	0.0688109696
711.99603	0.0690580457
710.56632	0.0692986473
709.13661	0.0695498660
707.70690	0.0698165745
706.27719	0.0700785592
704.84747	0.0702945516
703.41776	0.0704237074
701.98805	0.0704478770
700.55834	0.0703782216
699.12863	0.0702409297
697.69892	0.0700592697
696.26921	0.0698509887
694.83950	0.0696396232
693.40979	0.0694627091
691.98008	0.0693605617
690.55037	0.0693519115
689.12065	0.0694164783
687.69094	0.0695060864
686.26123	0.0695763305
684.83152	0.0696150661
683.40181	0.0696460009
681.97210	0.0697056279
680.54239	0.0698131397
679.11268	0.0699511170
677.68297	0.0700709224
676.25326	0.0701205358
674.82355	0.0700767040
673.39383	0.0699563771
671.96412	0.0698064193
670.53441	0.0696877316
669.10470	0.0696537495
667.67499	0.0697174817
666.24528	0.0698375255
664.81557	0.0699574128
663.38586	0.0700476244
661.95615	0.0701034665
660.52644	0.0701257959
659.09673	0.0701094046
657.66701	0.0700453073
656.23730	0.0699319020
654.80759	0.0697876960
653.37788	0.0696537197
651.94817	0.0695794597
650.51846	0.0695967451
649.08875	0.0696989447
647.65904	0.0698435158
646.22933	0.0699773952
644.79962	0.0700659603
643.36991	0.0701049268
641.94019	0.0701100379
640.51048	0.0700970218
639.08077	0.0700700358
637.65106	0.0700243562
636.22135	0.0699539781
634.79164	0.0698526353
633.36193	0.0697043538
631.93222	0.0694757402
630.50251	0.0691212937
629.07280	0.0686045885
627.64309	0.0679212958
626.21337	0.0671119541
624.78366	0.0662532449
623.35395	0.0654357150
621.92424	0.0647390261
620.49453	0.0642200634
619.06482	0.0638998076
617.63511	0.0637473688
616.20540	0.0636739582
614.77569	0.0635665208
613.34598	0.0633446127
611.91627	0.0630059764
610.48655	0.0626299754
609.05684	0.0623395219
607.62713	0.0622414313
606.19742	0.0623791739
604.76771	0.0627187937
603.33800	0.0631732717
601.90829	0.0636516586
600.47858	0.0640986562
599.04887	0.0645016581
