3997.47168	0.0298782215
3996.04197	0.0299036503
3994.61226	0.0298876502
3993.18255	0.0298424810
3991.75284	0.0297964551
3990.32312	0.0297783799
3988.89341	0.0297995321
3987.46370	0.0298446715
3986.03399	0.0298837125
3984.60428	0.0298924483
3983.17457	0.0298700426
3981.74486	0.0298355203
3980.31515	0.0298122577
3978.88544	0.0298112053
3977.45573	0.0298253167
3976.02602	0.0298390146
3974.59630	0.0298394579
3973.16659	0.0298216566
3971.73688	0.0297888312
3970.30717	0.0297465548
3968.87746	0.0297020096
3967.44775	0.0296623744
3966.01804	0.0296338554
3964.58833	0.0296208579
3963.15862	0.0296259839
3961.72891	0.0296494588
3960.29920	0.0296876784
3958.86948	0.0297293123
3957.43977	0.0297568124
3956.01006	0.0297556464
3954.58035	0.0297244899
3953.15064	0.0296783652
3951.72093	0.0296366271
3950.29122	0.0296084695
3948.86151	0.0295853578
3947.43180	0.0295516625
3946.00209	0.0295044500
3944.57238	0.0294616465
3943.14266	0.0294516180
3941.71295	0.0294896550
3940.28324	0.0295648258
3938.85353	0.0296454951
3937.42382	0.0297011212
3935.99411	0.0297194999
3934.56440	0.0297119319
3933.13469	0.0297030620
3931.70498	0.0297121815
3930.27527	0.0297372118
3928.84556	0.0297562294
3927.41585	0.0297443923
3925.98613	0.0296909772
3924.55642	0.0296047572
3923.12671	0.0295103230
3921.69700	0.0294361617
3920.26729	0.0294067990
3918.83758	0.0294352472
3917.40787	0.0295187738
3915.97816	0.0296354350
3914.54845	0.0297495481
3913.11874	0.0298229046
3911.68903	0.0298275910
3910.25931	0.0297507960
3908.82960	0.0295963045
3907.39989	0.0293827001
3905.97018	0.0291450340
3904.54047	0.0289349183
3903.11076	0.0288112536
3901.68105	0.0288127474
3900.25134	0.0289300196
3898.82163	0.0291078035
3897.39192	0.0292831101
3895.96221	0.0294132810
3894.53249	0.0294836722
3893.10278	0.0295035075
3891.67307	0.0294961948
3890.24336	0.0294824243
3888.81365	0.0294666328
3887.38394	0.0294361617
3885.95423	0.0293780193
3884.52452	0.0292967632
3883.09481	0.0292185377
3881.66510	0.0291752648
3880.23539	0.0291794185
3878.80567	0.0292119496
3877.37596	0.0292355120
3875.94625	0.0292181224
3874.51654	0.0291511808
3873.08683	0.0290561542
3871.65712	0.0289727431
3870.22741	0.0289335065
3868.79770	0.0289427768
3867.36799	0.0289840624
3865.93828	0.0290476847
3864.50857	0.0291386116
3863.07885	0.0292560570
3861.64914	0.0293711238
3860.21943	0.0294308700
3858.78972	0.0293843634
3857.36001	0.0292107034
3855.93030	0.0289528202
3854.50059	0.0287496559
3853.07088	0.0287766512
3851.64117	0.0290650949
3850.21146	0.0294598471
3848.78175	0.0297922976
3847.35203	0.0299800839
3845.92232	0.0300103743
3844.49261	0.0299099740
3843.06290	0.0297365468
3841.63319	0.0295710880
3840.20348	0.0294882711
3838.77377	0.0295143407
3837.34406	0.0296081100
3835.91435	0.0296984613
3834.48464	0.0297456682
3833.05493	0.0297585018
3831.62521	0.0297665149
3830.19550	0.0297837574
3828.76579	0.0297957622
3827.33608	0.0297734719
3825.90637	0.0296946634
3824.47666	0.0295605585
3823.04695	0.0294027831
3821.61724	0.0292803682
3820.18753	0.0292593520
3818.75782	0.0293752775
3817.32811	0.0296022892
3815.89839	0.0298615564
3814.46868	0.0300679617
3813.03897	0.0301731974
3811.60926	0.0301762223
3810.17955	0.0301063843
3808.74984	0.0300033558
3807.32013	0.0299011823
3805.89042	0.0298204925
3804.46071	0.0297706444
3803.03100	0.0297580585
3801.60129	0.0297926012
3800.17157	0.0298812725
3798.74186	0.0300157554
3797.31215	0.0301750582
3795.88244	0.0303376112
3794.45273	0.0304910615
3793.02302	0.0306281205
3791.59331	0.0307388287
3790.16360	0.0308085177
3788.73389	0.0308268871
3787.30418	0.0307993479
3785.87447	0.0307499990
3784.44475	0.0307092108
3783.01504	0.0306958202
3781.58533	0.0307119619
3780.15562	0.0307498034
3778.72591	0.0308007933
3777.29620	0.0308557339
3775.86649	0.0309015382
3774.43678	0.0309249964
3773.00707	0.0309218559
3771.57736	0.0309027042
3770.14765	0.0308887511
3768.71794	0.0308969505
3767.28822	0.0309254415
3765.85851	0.0309557971
3764.42880	0.0309694465
3762.99909	0.0309609119
3761.56938	0.0309378672
3760.13967	0.0309122670
3758.70996	0.0308846943
3757.28025	0.0308357794
3755.85054	0.0307323001
3754.42083	0.0305528510
3752.99112	0.0303137656
3751.56140	0.0300819427
3750.13169	0.0299450550
3748.70198	0.0299557336
3747.27227	0.0301122386
3745.84256	0.0303858034
3744.41285	0.0307351612
3742.98314	0.0310974810
3741.55343	0.0313986018
3740.12372	0.0315847732
3738.69401	0.0316406228
3737.26430	0.0315914005
3735.83458	0.0315027423
3734.40487	0.0314593501
3732.97516	0.0315088369
3731.54545	0.0316321291
3730.11574	0.0317774042
3728.68603	0.0319061242
3727.25632	0.0320061222
3725.82661	0.0320892558
3724.39690	0.0321782827
3722.96719	0.0322899446
3721.53748	0.0324204043
3720.10776	0.0325483121
3718.67805	0.0326459445
3717.24834	0.0326913223
3715.81863	0.0326747447
3714.38892	0.0326113142
3712.95921	0.0325564593
3711.52950	0.0325927585
3710.09979	0.0327659063
3708.67008	0.0330317318
3707.24037	0.0332982279
3705.81066	0.0335052088
3704.38094	0.0336536840
3702.95123	0.0337858722
3701.52152	0.0339504518
3700.09181	0.0341682769
3698.66210	0.0344225504
3697.23239	0.0346745066
3695.80268	0.0348896645
3694.37297	0.0350554213
3692.94326	0.0351894684
3691.51355	0.0353377908
3690.08384	0.0355516449
3688.65412	0.0358420685
3687.22441	0.0361642204
3685.79470	0.0364590250
3684.36499	0.0366930366
3682.93528	0.0368615724
3681.50557	0.0369762741
3680.07586	0.0370652713
3678.64615	0.0371784195
3677.21644	0.0373754092
3675.78673	0.0376925766
3674.35702	0.0381176062
3672.92730	0.0386183336
3671.49759	0.0391881093
3670.06788	0.0398373343
3668.63817	0.0405519791
3667.20846	0.0412876420
3665.77875	0.0420026854
3664.34904	0.0426808633
3662.91933	0.0433239751
3661.48962	0.0439346470
3660.05991	0.0445117317
3658.63020	0.0450584516
3657.20048	0.0455850512
3655.77077	0.0461006537
3654.34106	0.0466105342
3652.91135	0.0471359007
3651.48164	0.0477390438
3650.05193	0.0485084690
3648.62222	0.0494757295
3647.19251	0.0505503230
3645.76280	0.0516025387
3644.33309	0.0525786467
3642.90338	0.0534979850
3641.47366	0.0543947741
3640.04395	0.0552854463
3638.61424	0.0561641678
3637.18453	0.0570098646
3635.75482	0.0577958487
3634.32511	0.0585105382
3632.89540	0.0591901205
3631.46569	0.0599386096
3630.03598	0.0608853512
3628.60627	0.0620610528
3627.17656	0.0633241907
3625.74684	0.0644859523
3624.31713	0.0654685497
3622.88742	0.0663135573
3621.45771	0.0671106800
3620.02800	0.0679425448
3618.59829	0.0688517615
3617.16858	0.0698309243
3615.73887	0.0708382279
3614.30916	0.0718342587
3612.87945	0.0728098303
3611.44974	0.0737921670
3610.02003	0.0748197809
3608.59031	0.0759006143
3607.16060	0.0769950449
3605.73089	0.0780447125
3604.30118	0.0790128931
3602.87147	0.0798981935
3601.44176	0.0807212666
3600.01205	0.0815116093
3598.58234	0.0823021755
3597.15263	0.0831174403
3595.72292	0.0839584544
3594.29321	0.0848033577
3592.86349	0.0856359825
3591.43378	0.0864783823
3590.00407	0.0873884186
3588.57436	0.0884117857
3587.14465	0.0895247012
3585.71494	0.0906337053
3584.28523	0.0916488096
3582.85552	0.0925447643
3581.42581	0.0933564007
3579.99610	0.0941389725
3578.56639	0.0949392244
3577.13667	0.0957772583
3575.70696	0.0966388062
3574.27725	0.0974870026
3572.84754	0.0982889086
3571.41783	0.0990474224
3569.98812	0.0998068675
3568.55841	0.1006317437
3567.12870	0.1015597880
3565.69899	0.1025699377
3564.26928	0.1036018580
3562.83957	0.1046043187
3561.40985	0.1055560857
3559.98014	0.1064564958
3558.55043	0.1073156148
3557.12072	0.1081525609
3555.69101	0.1089897603
3554.26130	0.1098420769
3552.83159	0.1107116714
3551.40188	0.1115950942
3549.97217	0.1124927178
3548.54246	0.1134075671
3547.11275	0.1143322662
3545.68303	0.1152441129
3544.25332	0.1161139458
3542.82361	0.1169275120
3541.39390	0.1176963076
3539.96419	0.1184509918
3538.53448	0.1192245260
3537.10477	0.1200314909
3535.67506	0.1208578050
3534.24535	0.1216725037
3532.81564	0.1224545240
3531.38593	0.1232152879
3529.95621	0.1239922047
3528.52650	0.1248169169
3527.09679	0.1256865859
3525.66708	0.1265665889
3524.23737	0.1274190843
3522.80766	0.1282288432
3521.37795	0.1290054917
3519.94824	0.1297679543
3518.51853	0.1305299401
3517.08882	0.1312927753
3515.65911	0.1320476979
3514.22939	0.1327829212
3512.79968	0.1334952265
3511.36997	0.1341956705
3509.94026	0.1349023581
3508.51055	0.1356257349
3507.08084	0.1363641918
3505.65113	0.1371160597
3504.22142	0.1378893256
3502.79171	0.1386917830
3501.36200	0.1395100057
3499.93229	0.1403068155
3498.50257	0.1410457045
3497.07286	0.1417191178
3495.64315	0.1423522234
3494.21344	0.1429824382
3492.78373	0.1436349005
3491.35402	0.1443124563
3489.92431	0.1450000554
3488.49460	0.1456759423
3487.06489	0.1463223100
3485.63518	0.1469350159
3484.20547	0.1475245506
3482.77575	0.1481063217
3481.34604	0.1486863196
3479.91633	0.1492624730
3478.48662	0.1498370767
3477.05691	0.1504233479
3475.62720	0.1510340124
3474.19749	0.1516630501
3472.76778	0.1522851735
3471.33807	0.1528752893
3469.90836	0.1534267217
3468.47865	0.1539491117
3467.04893	0.1544542611
3465.61922	0.1549504846
3464.18951	0.1554482132
3462.75980	0.1559603959
3461.33009	0.1564919502
3459.90038	0.1570278108
3458.47067	0.1575390548
3457.04096	0.1580029130
3455.61125	0.1584150642
3454.18154	0.1587894112
3452.75183	0.1591472775
3451.32212	0.1595133990
3449.89240	0.1599107981
3448.46269	0.1603496671
3447.03298	0.1608199924
3445.60327	0.1612962037
3444.17356	0.1617586017
3442.74385	0.1622078866
3441.31414	0.1626572013
3439.88443	0.1631120443
3438.45472	0.1635603607
3437.02501	0.1639819145
3435.59530	0.1643624157
3434.16558	0.1647003442
3432.73587	0.1650024801
3431.30616	0.1652789861
3429.87645	0.1655395925
3428.44674	0.1657926738
3427.01703	0.1660443395
3425.58732	0.1662999392
3424.15761	0.1665687710
3422.72790	0.1668623537
3421.29819	0.1671867222
3419.86848	0.1675353646
3418.43876	0.1678918153
3417.00905	0.1682398319
3415.57934	0.1685691625
3414.14963	0.1688729972
3412.71992	0.1691435426
3411.29021	0.1693763882
3409.86050	0.1695779711
3408.43079	0.1697676927
3407.00108	0.1699677706
3405.57137	0.1701894253
3404.14166	0.1704268605
3402.71194	0.1706620902
3401.28223	0.1708773375
3399.85252	0.1710669100
3398.42281	0.1712409705
3396.99310	0.1714170575
3395.56339	0.1716024876
3394.13368	0.1717844158
3392.70397	0.1719381809
3391.27426	0.1720501930
3389.84455	0.1721304059
3388.41484	0.1722044051
3386.98512	0.1722913384
3385.55541	0.1723923087
3384.12570	0.1724985838
3382.69599	0.1726080775
3381.26628	0.1727294326
3379.83657	0.1728719771
3378.40686	0.1730383635
3376.97715	0.1732267141
3375.54744	0.1734365672
3374.11773	0.1736663282
3372.68802	0.1739047170
3371.25830	0.1741248965
3369.82859	0.1742949784
3368.39888	0.1743961871
3366.96917	0.1744356304
3365.53946	0.1744425595
3364.10975	0.1744501740
3362.68004	0.1744759083
3361.25033	0.1745149344
3359.82062	0.1745545566
3358.39091	0.1745976657
3356.96120	0.1746693254
3355.53148	0.1747995764
3354.10177	0.1749913394
3352.67206	0.1752097607
3351.24235	0.1754040122
3349.81264	0.1755451113
3348.38293	0.1756446362
3346.95322	0.1757384688
3345.52351	0.1758551598
3344.09380	0.1759961993
3342.66409	0.1761435121
3341.23438	0.1762766540
3339.80466	0.1763841510
3338.37495	0.1764639765
3336.94524	0.1765208691
3335.51553	0.1765678674
3334.08582	0.1766274571
3332.65611	0.1767266840
3331.22640	0.1768855900
3329.79669	0.1771042645
3328.36698	0.1773595065
3326.93727	0.1776119620
3325.50756	0.1778258532
3324.07784	0.1779866964
3322.64813	0.1781085432
3321.21842	0.1782234460
3319.78871	0.1783619523
3318.35900	0.1785408705
3316.92929	0.1787641346
3315.49958	0.1790329218
3314.06987	0.1793498099
3312.64016	0.1797123849
3311.21045	0.1801036745
3309.78074	0.1804889888
3308.35102	0.1808242202
3306.92131	0.1810724139
3305.49160	0.1812218130
3304.06189	0.1812963039
3302.63218	0.1813492030
3301.20247	0.1814392954
3299.77276	0.1815999895
3298.34305	0.1818184853
3296.91334	0.1820451319
3295.48363	0.1822189689
3294.05392	0.1822960824
3292.62421	0.1822592467
3291.19449	0.1821145713
3289.76478	0.1818851382
3288.33507	0.1816040725
3286.90536	0.1813085675
3285.47565	0.1810277253
3284.04594	0.1807736158
3282.61623	0.1805387288
3281.18652	0.1803037375
3279.75681	0.1800484955
3278.32710	0.1797587425
3276.89739	0.1794266105
3275.46767	0.1790460646
3274.03796	0.1786103100
3272.60825	0.1781083494
3271.17854	0.1775293201
3269.74883	0.1768680513
3268.31912	0.1761308908
3266.88941	0.1753374934
3265.45970	0.1745162159
3264.02999	0.1736985743
3262.60028	0.1729125679
3261.17057	0.1721753925
3259.74085	0.1714865565
3258.31114	0.1708261669
3256.88143	0.1701666266
3255.45172	0.1694919467
3254.02201	0.1688118279
3252.59230	0.1681538820
3251.16259	0.1675391197
3249.73288	0.1669618785
3248.30317	0.1663920581
3246.87346	0.1657978296
3245.44375	0.1651688218
3244.01403	0.1645236313
3242.58432	0.1638991833
3241.15461	0.1633344144
3239.72490	0.1628551781
3238.29519	0.1624625623
3236.86548	0.1621270031
3235.43577	0.1617944092
3234.00606	0.1614066511
3232.57635	0.1609309018
3231.14664	0.1603764147
3229.71693	0.1597881913
3228.28721	0.1592213660
3226.85750	0.1587124467
3225.42779	0.1582679451
3223.99808	0.1578705609
3222.56837	0.1574960798
3221.13866	0.1571252644
3219.70895	0.1567466706
3218.27924	0.1563536376
3216.84953	0.1559412032
3215.41982	0.1555070132
3213.99011	0.1550550908
3212.56039	0.1545969546
3211.13068	0.1541481912
3209.70097	0.1537202150
3208.27126	0.1533147693
3206.84155	0.1529224068
3205.41184	0.1525285840
3203.98213	0.1521185488
3202.55242	0.1516825855
3201.12271	0.1512172818
3199.69300	0.1507259160
3198.26329	0.1502185762
3196.83357	0.1497094184
3195.40386	0.1492128670
3193.97415	0.1487362385
3192.54444	0.1482753456
3191.11473	0.1478161216
3189.68502	0.1473422945
3188.25531	0.1468471587
3186.82560	0.1463383734
3185.39589	0.1458333880
3183.96618	0.1453456134
3182.53647	0.1448743939
3181.10675	0.1444040537
3179.67704	0.1439157277
3178.24733	0.1433992684
3176.81762	0.1428585500
3175.38791	0.1423065215
3173.95820	0.1417568624
3172.52849	0.1412183493
3171.09878	0.1406930685
3169.66907	0.1401770115
3168.23936	0.1396630108
3166.80965	0.1391429305
3165.37993	0.1386124492
3163.95022	0.1380748451
3162.52051	0.1375419796
3161.09080	0.1370306313
3159.66109	0.1365547329
3158.23138	0.1361158043
3156.80167	0.1356987804
3155.37196	0.1352764815
3153.94225	0.1348218769
3152.51254	0.1343208104
3151.08283	0.1337762922
3149.65311	0.1332045943
3148.22340	0.1326287687
3146.79369	0.1320735961
3145.36398	0.1315619797
3143.93427	0.1311077923
3142.50456	0.1307051033
3141.07485	0.1303263456
3139.64514	0.1299324781
3138.21543	0.1294941753
3136.78572	0.1290083528
3135.35601	0.1284971982
3133.92629	0.1279915273
3132.49658	0.1275120527
3131.06687	0.1270606220
3129.63716	0.1266278774
3128.20745	0.1262053996
3126.77774	0.1257948577
3125.34803	0.1254051775
3123.91832	0.1250432581
3122.48861	0.1247067600
3121.05890	0.1243823022
3119.62919	0.1240519956
3118.19948	0.1237016991
3116.76976	0.1233276203
3115.34005	0.1229367107
3113.91034	0.1225415245
3112.48063	0.1221508831
3111.05092	0.1217619255
3109.62121	0.1213630438
3108.19150	0.1209449694
3106.76179	0.1205159500
3105.33208	0.1201014891
3103.90237	0.1197283491
3102.47266	0.1194015890
3101.04294	0.1190965697
3099.61323	0.1187772304
3098.18352	0.1184260324
3096.75381	0.1180593148
3095.32410	0.1177164689
3093.89439	0.1174298599
3092.46468	0.1172026396
3091.03497	0.1170090809
3089.60526	0.1168114096
3088.17555	0.1165797040
3086.74584	0.1163024008
3085.31612	0.1159855202
3083.88641	0.1156455502
3082.45670	0.1152976453
3081.02699	0.1149462461
3079.59728	0.1145819500
3078.16757	0.1141899824
3076.73786	0.1137666106
3075.30815	0.1133285239
3073.87844	0.1129082739
3072.44873	0.1125323027
3071.01902	0.1122010946
3069.58930	0.1118818894
3068.15959	0.1115269512
3066.72988	0.1111008152
3065.30017	0.1106041595
3063.87046	0.1100731865
3062.44075	0.1095583215
3061.01104	0.1090954766
3059.58133	0.1086897999
3058.15162	0.1083193198
3056.72191	0.1079523787
3055.29220	0.1075651124
3053.86248	0.1071501672
3052.43277	0.1067145988
3051.00306	0.1062723920
3049.57335	0.1058381721
3048.14364	0.1054199859
3046.71393	0.1050145328
3045.28422	0.1046062633
3043.85451	0.1041750163
3042.42480	0.1037101746
3040.99509	0.1032211110
3039.56538	0.1027331576
3038.13566	0.1022703126
3036.70595	0.1018364057
3035.27624	0.1014121845
3033.84653	0.1009701490
3032.41682	0.1004959345
3030.98711	0.0999980271
3029.55740	0.0994994789
3028.12769	0.0990224183
3026.69798	0.0985769928
3025.26827	0.0981639549
3023.83856	0.0977808759
3022.40884	0.0974272862
3020.97913	0.0971035436
3019.54942	0.0968070924
3018.11971	0.0965276435
3016.69000	0.0962452814
3015.26029	0.0959333628
3013.83058	0.0955687910
3012.40087	0.0951450989
3010.97116	0.0946791321
3009.54145	0.0942048579
3008.11174	0.0937595516
3006.68202	0.0933697522
3005.25231	0.0930479243
3003.82260	0.0927958563
3002.39289	0.0926072076
3000.96318	0.0924680531
2999.53347	0.0923583359
2998.10376	0.0922578052
2996.67405	0.0921547040
2995.24434	0.0920481458
2993.81463	0.0919444486
2992.38492	0.0918521732
2990.95520	0.0917811096
2989.52549	0.0917444676
2988.09578	0.0917582139
2986.66607	0.0918339118
2985.23636	0.0919692144
2983.80665	0.0921457484
2982.37694	0.0923364386
2980.94723	0.0925183371
2979.51752	0.0926835611
2978.08781	0.0928394198
2976.65810	0.0930008814
2975.22838	0.0931783170
2973.79867	0.0933705196
2972.36896	0.0935669169
2970.93925	0.0937552825
2969.50954	0.0939291045
2968.07983	0.0940855369
2966.65012	0.0942173004
2965.22041	0.0943079963
2963.79070	0.0943345279
2962.36099	0.0942803025
2960.93128	0.0941432491
2959.50157	0.0939341784
2958.07185	0.0936655700
2956.64214	0.0933431461
2955.21243	0.0929674059
2953.78272	0.0925463066
2952.35301	0.0921043977
2950.92330	0.0916803628
2949.49359	0.0913114846
2948.06388	0.0910166278
2946.63417	0.0907915086
2945.20446	0.0906200856
2943.77475	0.0904916152
2942.34503	0.0904066190
2940.91532	0.0903696120
2939.48561	0.0903757662
2938.05590	0.0904062688
2936.62619	0.0904365852
2935.19648	0.0904489234
2933.76677	0.0904373825
2932.33706	0.0904000849
2930.90735	0.0903312117
2929.47764	0.0902178884
2928.04793	0.0900477767
2926.61821	0.0898168311
2925.18850	0.0895322338
2923.75879	0.0892056748
2922.32908	0.0888438225
2920.89937	0.0884429514
2919.46966	0.0879900083
2918.03995	0.0874713287
2916.61024	0.0868809223
2915.18053	0.0862258375
2913.75082	0.0855226815
2912.32111	0.0847942382
2910.89139	0.0840636492
2909.46168	0.0833524391
2908.03197	0.0826773793
2906.60226	0.0820485130
2905.17255	0.0814692974
2903.74284	0.0809405670
2902.31313	0.0804641321
2900.88342	0.0800419375
2899.45371	0.0796690360
2898.02400	0.0793311298
2896.59429	0.0790100098
2895.16457	0.0786957964
2893.73486	0.0783943608
2892.30515	0.0781229213
2890.87544	0.0778955594
2889.44573	0.0777130574
2888.01602	0.0775646940
2886.58631	0.0774389431
2885.15660	0.0773329288
2883.72689	0.0772536919
2882.29718	0.0772116631
2880.86747	0.0772112906
2879.43775	0.0772431493
2878.00804	0.0772804394
2876.57833	0.0772827640
2875.14862	0.0772072151
2873.71891	0.0770258605
2872.28920	0.0767368302
2870.85949	0.0763649046
2869.42978	0.0759492591
2868.00007	0.0755270272
2866.57036	0.0751239136
2865.14065	0.0747524425
2863.71093	0.0744173229
2862.28122	0.0741191581
2860.85151	0.0738563836
2859.42180	0.0736233965
2857.99209	0.0734092966
2856.56238	0.0731982663
2855.13267	0.0729710534
2853.70296	0.0727074444
2852.27325	0.0723882765
2850.84354	0.0719976574
2849.41383	0.0715274513
2847.98411	0.0709831491
2846.55440	0.0703897923
2845.12469	0.0697897673
2843.69498	0.0692300573
2842.26527	0.0687443092
2840.83556	0.0683382228
2839.40585	0.0679919422
2837.97614	0.0676755831
2836.54643	0.0673677698
2835.11672	0.0670648515
2833.68701	0.0667753443
2832.25729	0.0665087700
2830.82758	0.0662673563
2829.39787	0.0660467818
2827.96816	0.0658409894
2826.53845	0.0656459853
2825.10874	0.0654592812
2823.67903	0.0652770847
2822.24932	0.0650936067
2820.81961	0.0649048015
2819.38990	0.0647136942
2817.96019	0.0645318702
2816.53047	0.0643734485
2815.10076	0.0642443448
2813.67105	0.0641352609
2812.24134	0.0640233532
2810.81163	0.0638857186
2809.38192	0.0637130439
2807.95221	0.0635152757
2806.52250	0.0633160397
2805.09279	0.0631390214
2803.66308	0.0629966334
2802.23337	0.0628854409
2800.80366	0.0627893806
2799.37394	0.0626882017
2797.94423	0.0625684112
2796.51452	0.0624293834
2795.08481	0.0622816458
2793.65510	0.0621366426
2792.22539	0.0619955696
2790.79568	0.0618465468
2789.36597	0.0616743863
2787.93626	0.0614739358
2786.50655	0.0612560511
2785.07684	0.0610417612
2783.64712	0.0608505942
2782.21741	0.0606922582
2780.78770	0.0605662651
2779.35799	0.0604647659
2777.92828	0.0603738800
2776.49857	0.0602748953
2775.06886	0.0601491146
2773.63915	0.0599881187
2772.20944	0.0597992577
2770.77973	0.0596037395
2769.35002	0.0594243072
2767.92030	0.0592721254
2766.49059	0.0591428056
2765.06088	0.0590225719
2763.63117	0.0588987246
2762.20146	0.0587648340
2760.77175	0.0586210601
2759.34204	0.0584694296
2757.91233	0.0583142638
2756.48262	0.0581640117
2755.05291	0.0580310896
2753.62320	0.0579244122
2752.19348	0.0578394979
2750.76377	0.0577555485
2749.33406	0.0576448888
2747.90435	0.0574898124
2746.47464	0.0572946519
2745.04493	0.0570828356
2743.61522	0.0568819568
2742.18551	0.0567075983
2740.75580	0.0565571301
2739.32609	0.0564166233
2737.89638	0.0562734157
2736.46666	0.0561248101
2735.03695	0.0559798479
2733.60724	0.0558520928
2732.17753	0.0557508096
2730.74782	0.0556737334
2729.31811	0.0556065589
2727.88840	0.0555283017
2726.45869	0.0554205328
2725.02898	0.0552748628
2723.59927	0.0550959744
2722.16956	0.0548990965
2720.73984	0.0547022447
2719.31013	0.0545193665
2717.88042	0.0543561615
2716.45071	0.0542106740
2715.02100	0.0540767275
2713.59129	0.0539470427
2712.16158	0.0538151376
2710.73187	0.0536758043
2709.30216	0.0535278209
2707.87245	0.0533760227
2706.44274	0.0532295741
2705.01302	0.0530985035
2703.58331	0.0529879145
2702.15360	0.0528954528
2700.72389	0.0528130941
2699.29418	0.0527318344
2697.86447	0.0526450947
2696.43476	0.0525512733
2695.00505	0.0524517745
2693.57534	0.0523486212
2692.14563	0.0522421934
2690.71592	0.0521319956
2689.28620	0.0520193763
2687.85649	0.0519106053
2686.42678	0.0518165939
2684.99707	0.0517462231
2683.56736	0.0517003536
2682.13765	0.0516674928
2680.70794	0.0516286567
2679.27823	0.0515663885
2677.84852	0.0514716059
2676.41881	0.0513452329
2674.98910	0.0511971377
2673.55938	0.0510413162
2672.12967	0.0508933254
2670.69996	0.0507640652
2669.27025	0.0506575853
2667.84054	0.0505696312
2666.41083	0.0504909121
2664.98112	0.0504121780
2663.55141	0.0503276736
2662.12170	0.0502347872
2660.69199	0.0501318984
2659.26228	0.0500181690
2657.83256	0.0498950295
2656.40285	0.0497690849
2654.97314	0.0496511273
2653.54343	0.0495515093
2652.11372	0.0494740456
2650.68401	0.0494135655
2649.25430	0.0493602008
2647.82459	0.0493060574
2646.39488	0.0492497757
2644.96517	0.0491947159
2643.53546	0.0491423644
2642.10575	0.0490895249
2640.67603	0.0490295887
2639.24632	0.0489587411
2637.81661	0.0488806888
2636.38690	0.0488045923
2634.95719	0.0487400629
2633.52748	0.0486910343
2632.09777	0.0486535355
2630.66806	0.0486196019
2629.23835	0.0485810116
2627.80864	0.0485338271
2626.37893	0.0484781638
2624.94921	0.0484184027
2623.51950	0.0483607613
2622.08979	0.0483111106
2620.66008	0.0482731238
2619.23037	0.0482461043
2617.80066	0.0482255369
2616.37095	0.0482039303
2614.94124	0.0481737629
2613.51153	0.0481311344
2612.08182	0.0480766520
2610.65211	0.0480145440
2609.22239	0.0479501896
2607.79268	0.0478874929
2606.36297	0.0478282161
2604.93326	0.0477731973
2603.50355	0.0477248281
2602.07384	0.0476875007
2600.64413	0.0476655737
2599.21442	0.0476602837
2597.78471	0.0476661511
2596.35500	0.0476728231
2594.92529	0.0476701073
2593.49557	0.0476532355
2592.06586	0.0476260260
2590.63615	0.0475974008
2589.20644	0.0475758538
2587.77673	0.0475645289
2586.34702	0.0475597940
2584.91731	0.0475549400
2583.48760	0.0475439094
2582.05789	0.0475245602
2580.62818	0.0474995784
2579.19847	0.0474756099
2577.76875	0.0474616662
2576.33904	0.0474654175
2574.90933	0.0474907421
2573.47962	0.0475343801
2572.04991	0.0475859903
2570.62020	0.0476315692
2569.19049	0.0476607457
2567.76078	0.0476721302
2566.33107	0.0476724468
2564.90136	0.0476721302
2563.47165	0.0476776771
2562.04193	0.0476890579
2560.61222	0.0477033593
2559.18251	0.0477187894
2557.75280	0.0477364995
2556.32309	0.0477581695
2554.89338	0.0477829054
2553.46367	0.0478080176
2552.03396	0.0478317142
2550.60425	0.0478556156
2549.17454	0.0478844903
2547.74483	0.0479231626
2546.31511	0.0479748212
2544.88540	0.0480396710
2543.45569	0.0481145903
2542.02598	0.0481941551
2540.59627	0.0482704900
2539.16656	0.0483369455
2537.73685	0.0483897552
2536.30714	0.0484310761
2534.87743	0.0484667905
2533.44772	0.0485030860
2532.01801	0.0485430881
2530.58829	0.0485864244
2529.15858	0.0486318208
2527.72887	0.0486804955
2526.29916	0.0487371087
2524.86945	0.0488057211
2523.43974	0.0488857292
2522.01003	0.0489694327
2520.58032	0.0490457900
2519.15061	0.0491086245
2517.72090	0.0491596982
2516.29119	0.0492066033
2514.86147	0.0492546149
2513.43176	0.0493025780
2512.00205	0.0493455827
2510.57234	0.0493816324
2509.14263	0.0494159721
2507.71292	0.0494582057
2506.28321	0.0495143123
2504.85350	0.0495822057
2503.42379	0.0496541746
2501.99408	0.0497235693
2500.56437	0.0497892611
2499.13465	0.0498540625
2497.70494	0.0499210805
2496.27523	0.0499906614
2494.84552	0.0500610396
2493.41581	0.0501318388
2491.98610	0.0502048843
2490.55639	0.0502830893
2489.12668	0.0503672063
2487.69697	0.0504546240
2486.26726	0.0505406968
2484.83755	0.0506208502
2483.40784	0.0506921746
2481.97812	0.0507537648
2480.54841	0.0508064590
2479.11870	0.0508523472
2477.68899	0.0508962348
2476.25928	0.0509436503
2474.82957	0.0509985201
2473.39986	0.0510606505
2471.97015	0.0511259884
2470.54044	0.0511892736
2469.11073	0.0512467958
2467.68102	0.0512982383
2466.25130	0.0513453484
2464.82159	0.0513904504
2463.39188	0.0514357053
2461.96217	0.0514829718
2460.53246	0.0515331328
2459.10275	0.0515868552
2457.67304	0.0516440794
2456.24333	0.0517039672
2454.81362	0.0517659932
2453.38391	0.0518284924
2451.95420	0.0518896915
2450.52448	0.0519482121
2449.09477	0.0520035028
2447.66506	0.0520548895
2446.23535	0.0521003008
2444.80564	0.0521353818
2443.37593	0.0521556661
2441.94622	0.0521603674
2440.51651	0.0521547906
2439.08680	0.0521494225
2437.65709	0.0521557555
2436.22738	0.0521812662
2434.79766	0.0522272736
2433.36795	0.0522890836
2431.93824	0.0523578487
2430.50853	0.0524241142
2429.07882	0.0524798743
2427.64911	0.0525208898
2426.21940	0.0525480881
2424.78969	0.0525670201
2423.35998	0.0525853969
2421.93027	0.0526092686
2420.50056	0.0526393950
2419.07084	0.0526703410
2417.64113	0.0526933409
2416.21142	0.0527025759
2414.78171	0.0526990108
2413.35200	0.0526920855
2411.92229	0.0526945405
2410.49258	0.0527156703
2409.06287	0.0527560934
2407.63316	0.0528076291
2406.20345	0.0528571233
2404.77374	0.0528928190
2403.34402	0.0529090762
2401.91431	0.0529067665
2400.48460	0.0528920032
2399.05489	0.0528715923
2397.62518	0.0528502204
2396.19547	0.0528306626
2394.76576	0.0528162494
2393.33605	0.0528127141
2391.90634	0.0528261624
2390.47663	0.0528586134
2389.04692	0.0529033467
2387.61720	0.0529446043
2386.18749	0.0529632904
2384.75778	0.0529453941
2383.32807	0.0528862998
2381.89836	0.0527900867
2380.46865	0.0526654609
2379.03894	0.0525179952
2377.60923	0.0523484461
2376.17952	0.0521533601
2374.74981	0.0519291013
2373.32010	0.0516739637
2371.89038	0.0513904504
2370.46067	0.0510877557
2369.03096	0.0507857390
2367.60125	0.0505154841
2366.17154	0.0503102615
2364.74183	0.0501898602
2363.31212	0.0501511320
2361.88241	0.0501730666
2360.45270	0.0502330437
2359.02299	0.0503245629
2357.59328	0.0504599735
2356.16356	0.0506561622
2354.73385	0.0509090126
2353.30414	0.0511844680
2351.87443	0.0514348596
2350.44472	0.0516209900
2349.01501	0.0517221913
2347.58530	0.0517345555
2346.15559	0.0516686887
2344.72588	0.0515518747
2343.29617	0.0514225625
2341.86646	0.0513132997
2340.43674	0.0512292311
2339.00703	0.0511511788
2337.57732	0.0510597192
2336.14761	0.0509572737
2334.71790	0.0508686155
2333.28819	0.0508266836
2331.85848	0.0508521758
2330.42877	0.0509412922
2328.99906	0.0510670245
2327.56935	0.0511949509
2326.13964	0.0512998402
2324.70993	0.0513755046
2323.28021	0.0514321178
2321.85050	0.0514883064
2320.42079	0.0515588708
2318.99108	0.0516465306
2317.56137	0.0517418757
2316.13166	0.0518305078
2314.70195	0.0519021489
2313.27224	0.0519548655
2311.84253	0.0519927368
2310.41282	0.0520210117
2308.98311	0.0520427488
2307.55339	0.0520599075
2306.12368	0.0520758443
2304.69397	0.0520963892
2303.26426	0.0521272384
2301.83455	0.0521707013
2300.40484	0.0522239767
2298.97513	0.0522787757
2297.54542	0.0523242094
2296.11571	0.0523508415
2294.68600	0.0523548685
2293.25629	0.0523398593
2291.82657	0.0523145422
2290.39686	0.0522882044
2288.96715	0.0522669517
2287.53744	0.0522529967
2286.10773	0.0522461906
2284.67802	0.0522460453
2283.24831	0.0522517115
2281.81860	0.0522609949
2280.38889	0.0522701330
2278.95918	0.0522749498
2277.52947	0.0522726737
2276.09975	0.0522645563
2274.67004	0.0522544533
2273.24033	0.0522460453
2271.81062	0.0522392131
2270.38091	0.0522294044
2268.95120	0.0522109829
2267.52149	0.0521821156
2266.09178	0.0521468818
2264.66207	0.0521129370
2263.23236	0.0520873405
2261.80265	0.0520726629
2260.37293	0.0520676412
2258.94322	0.0520690158
2257.51351	0.0520732738
2256.08380	0.0520775057
2254.65409	0.0520791709
2253.22438	0.0520762801
2251.79467	0.0520677865
2250.36496	0.0520543940
2248.93525	0.0520377606
2247.50554	0.0520208925
2246.07583	0.0520062149
2244.64611	0.0519950688
2243.21640	0.0519868992
2241.78669	0.0519795753
2240.35698	0.0519719310
2238.92727	0.0519645214
2237.49756	0.0519610494
2236.06785	0.0519656874
2234.63814	0.0519795753
2233.20843	0.0519972593
2231.77872	0.0520074703
2230.34901	0.0519991852
2228.91929	0.0519697741
2227.48958	0.0519269742
2226.05987	0.0518855192
2224.63016	0.0518570207
2223.20045	0.0518447421
2221.77074	0.0518440679
2220.34103	0.0518484749
2218.91132	0.0518538132
2217.48161	0.0518587120
2216.05190	0.0518623888
2214.62219	0.0518637598
2213.19247	0.0518620089
2211.76276	0.0518569313
2210.33305	0.0518480353
2208.90334	0.0518340655
2207.47363	0.0518137664
2206.04392	0.0517881587
2204.61421	0.0517600141
2203.18450	0.0517329238
2201.75479	0.0517099760
2200.32508	0.0516923629
2198.89537	0.0516795330
2197.46565	0.0516694747
2196.03594	0.0516585410
2194.60623	0.0516436435
2193.17652	0.0516236722
2191.74681	0.0516012833
2190.31710	0.0515804105
2188.88739	0.0515640005
2187.45768	0.0515525751
2186.02797	0.0515445285
2184.59826	0.0515376218
2183.16855	0.0515297800
2181.73883	0.0515195206
2180.30912	0.0515065789
2178.87941	0.0514918603
2177.44970	0.0514765903
2176.01999	0.0514605902
2174.59028	0.0514416769
2173.16057	0.0514176078
2171.73086	0.0513893999
2170.30115	0.0513620712
2168.87144	0.0513426103
2167.44173	0.0513344221
2166.01202	0.0513345376
2164.58230	0.0513345674
2163.15259	0.0513254777
2161.72288	0.0513030179
2160.29317	0.0512697808
2158.86346	0.0512331650
2157.43375	0.0512002520
2156.00404	0.0511742756
2154.57433	0.0511543527
2153.14462	0.0511377268
2151.71491	0.0511222333
2150.28520	0.0511081405
2148.85548	0.0510964356
2147.42577	0.0510876700
2145.99606	0.0510802157
2144.56635	0.0510700531
2143.13664	0.0510535166
2141.70693	0.0510303713
2140.27722	0.0510053933
2138.84751	0.0509864129
2137.41780	0.0509785824
2135.98809	0.0509803854
2134.55838	0.0509849861
2133.12866	0.0509846061
2131.69895	0.0509755537
2130.26924	0.0509597175
2128.83953	0.0509417579
2127.40982	0.0509261265
2125.98011	0.0509154461
2124.55040	0.0509100892
2123.12069	0.0509070642
2121.69098	0.0509011559
2120.26127	0.0508879125
2118.83156	0.0508660264
2117.40184	0.0508395433
2115.97213	0.0508137606
2114.54242	0.0507912971
2113.11271	0.0507700294
2111.68300	0.0507460237
2110.25329	0.0507194623
2108.82358	0.0506962761
2107.39387	0.0506846681
2105.96416	0.0506890900
2104.53445	0.0507061370
2103.10474	0.0507265329
2101.67502	0.0507409610
2100.24531	0.0507449470
2098.81560	0.0507388078
2097.38589	0.0507247858
2095.95618	0.0507036373
2094.52647	0.0506756790
2093.09676	0.0506434776
2091.66705	0.0506136641
2090.23734	0.0505941473
2088.80763	0.0505900756
2087.37792	0.0505991802
2085.94820	0.0506128222
2084.51849	0.0506211706
2083.08878	0.0506180264
2081.65907	0.0506044142
2080.22936	0.0505860932
2078.79965	0.0505706221
2077.36994	0.0505633503
2075.94023	0.0505653284
2074.51052	0.0505724251
2073.08081	0.0505766124
2071.65110	0.0505696312
2070.22138	0.0505474731
2068.79167	0.0505128652
2067.36196	0.0504741631
2065.93225	0.0504397973
2064.50254	0.0504130200
2063.07283	0.0503906645
2061.64312	0.0503674969
2060.21341	0.0503415093
2058.78370	0.0503171235
2057.35399	0.0503019206
2055.92428	0.0503009893
2054.49456	0.0503127053
2053.06485	0.0503282547
2051.63514	0.0503366254
2050.20543	0.0503310449
2048.77572	0.0503127351
2047.34601	0.0502893366
2045.91630	0.0502706468
2044.48659	0.0502620749
2043.05688	0.0502626859
2041.62717	0.0502664335
2040.19746	0.0502665788
2038.76774	0.0502601564
2037.33803	0.0502489991
2035.90832	0.0502390005
2034.47861	0.0502358899
2033.04890	0.0502422564
2031.61919	0.0502560884
2030.18948	0.0502728559
2028.75977	0.0502886660
2027.33006	0.0503018051
2025.90035	0.0503114238
2024.47064	0.0503172390
2023.04092	0.0503187515
2021.61121	0.0503176451
2020.18150	0.0503168590
2018.75179	0.0503195636
2017.32208	0.0503259301
2015.89237	0.0503342114
2014.46266	0.0503440946
2013.03295	0.0503576696
2011.60324	0.0503781363
2010.17353	0.0504056364
2008.74382	0.0504360460
2007.31411	0.0504618660
2005.88439	0.0504782647
2004.45468	0.0504852422
2003.02497	0.0504876561
2001.59526	0.0504902713
2000.16555	0.0504932664
1998.73584	0.0504903607
1997.30613	0.0504735522
1995.87642	0.0504415110
1994.44671	0.0504042991
1993.01700	0.0503813922
1991.58729	0.0503911301
1990.15757	0.0504408740
1988.72786	0.0505241193
1987.29815	0.0506246015
1985.86844	0.0507236235
1984.43873	0.0508040152
1983.00902	0.0508539788
1981.57931	0.0508708283
1980.14960	0.0508636683
1978.71989	0.0508495271
1977.29018	0.0508458577
1975.86047	0.0508611090
1974.43075	0.0508915223
1973.00104	0.0509253703
1971.57133	0.0509506948
1970.14162	0.0509637333
1968.71191	0.0509710126
1967.28220	0.0509865880
1965.85249	0.0510226861
1964.42278	0.0510829240
1962.99307	0.0511611700
1961.56336	0.0512469113
1960.13365	0.0513318889
1958.70393	0.0514115468
1957.27422	0.0514843725
1955.84451	0.0515496582
1954.41480	0.0516068526
1952.98509	0.0516552180
1951.55538	0.0516934432
1950.12567	0.0517192781
1948.69596	0.0517321080
1947.26625	0.0517368019
1945.83654	0.0517433062
1944.40683	0.0517634563
1942.97711	0.0518046953
1941.54740	0.0518664122
1940.11769	0.0519412383
1938.68798	0.0520190261
1937.25827	0.0520919524
1935.82856	0.0521573611
1934.39885	0.0522190109
1932.96914	0.0522829220
1931.53943	0.0523519218
1930.10972	0.0524216630
1928.68001	0.0524834953
1927.25029	0.0525307916
1925.82058	0.0525643304
1924.39087	0.0525905117
1922.96116	0.0526168384
1921.53145	0.0526486300
1920.10174	0.0526889563
1918.67203	0.0527409799
1917.24232	0.0528072752
1915.81261	0.0528882295
1914.38290	0.0529799014
1912.95319	0.0530748405
1911.52347	0.0531646796
1910.09376	0.0532434471
1908.66405	0.0533118956
1907.23434	0.0533775166
1905.80463	0.0534491204
1904.37492	0.0535300486
1902.94521	0.0536162294
1901.51550	0.0537003838
1900.08579	0.0537778102
1898.65608	0.0538483374
1897.22637	0.0539136305
1895.79665	0.0539753549
1894.36694	0.0540357716
1892.93723	0.0540991575
1891.50752	0.0541713759
1890.07781	0.0542563684
1888.64810	0.0543544888
1887.21839	0.0544625223
1885.78868	0.0545749553
1884.35897	0.0546856001
1882.92926	0.0547884293
1881.49955	0.0548819713
1880.06983	0.0549694821
1878.64012	0.0550550111
1877.21041	0.0551366806
1875.78070	0.0552050769
1874.35099	0.0552515499
1872.92128	0.0552785993
1871.49157	0.0553032942
1870.06186	0.0553502515
1868.63215	0.0554366484
1867.20244	0.0555587485
1865.77273	0.0556950085
1864.34301	0.0558224209
1862.91330	0.0559303500
1861.48359	0.0560224280
1860.05388	0.0561095811
1858.62417	0.0562009923
1857.19446	0.0562980212
1855.76475	0.0563971065
1854.33504	0.0564961880
1852.90533	0.0565970875
1851.47562	0.0567002818
1850.04591	0.0567992218
1848.61619	0.0568835214
1847.18648	0.0569498613
1845.75677	0.0570098348
1844.32706	0.0570841059
1842.89735	0.0571850538
1841.46764	0.0573075898
1840.03793	0.0574379563
1838.60822	0.0575656444
1837.17851	0.0576850027
1835.74880	0.0577922724
1834.31909	0.0578851327
1832.88938	0.0579665937
1831.45966	0.0580465905
1830.02995	0.0581379086
1828.60024	0.0582497008
1827.17053	0.0583841689
1825.74082	0.0585374907
1824.31111	0.0587022752
1822.88140	0.0588688143
1821.45169	0.0590285324
1820.02198	0.0591780171
1818.59227	0.0593193360
1817.16256	0.0594556816
1815.73284	0.0595878549
1814.30313	0.0597155206
1812.87342	0.0598414466
1811.44371	0.0599710606
1810.01400	0.0601067804
1808.58429	0.0602442063
1807.15458	0.0603773333
1805.72487	0.0605057105
1804.29516	0.0606365055
1802.86545	0.0607793108
1801.43574	0.0609391071
1800.00602	0.0611130893
1798.57631	0.0612916723
1797.14660	0.0614626929
1795.71689	0.0616178811
1794.28718	0.0617606826
1792.85747	0.0619093180
1791.42776	0.0620850027
1789.99805	0.0622915626
1788.56834	0.0625104159
1787.13863	0.0627181977
1785.70892	0.0629053712
1784.27920	0.0630783737
1782.84949	0.0632513613
1781.41978	0.0634344742
1779.99007	0.0636289418
1778.56036	0.0638274252
1777.13065	0.0640187040
1775.70094	0.0641939193
1774.27123	0.0643570274
1772.84152	0.0645333156
1771.41181	0.0647573546
1769.98210	0.0650396049
1768.55238	0.0653531104
1767.12267	0.0656602904
1765.69296	0.0659433305
1764.26325	0.0662086532
1762.83354	0.0664736554
1761.40383	0.0667542741
1759.97412	0.0670595393
1758.54441	0.0673904121
1757.11470	0.0677399039
1755.68499	0.0680966452
1754.25528	0.0684553087
1752.82556	0.0688288957
1751.39585	0.0692453310
1749.96614	0.0697237700
1748.53643	0.0702488422
1747.10672	0.0707817972
1745.67701	0.0712975636
1744.24730	0.0717980042
1742.81759	0.0722922608
1741.38788	0.0727778077
1739.95817	0.0732439235
1738.52846	0.0736937225
1737.09874	0.0741551742
1735.66903	0.0746694282
1734.23932	0.0752633736
1732.80961	0.0759272203
1731.37990	0.0766246840
1729.95019	0.0773275495
1728.52048	0.0780315772
1727.09077	0.0787461251
1725.66106	0.0794787556
1724.23135	0.0802292526
1722.80164	0.0809956789
1721.37192	0.0817919970
1719.94221	0.0826681703
1718.51250	0.0837001428
1717.08279	0.0849185139
1715.65308	0.0862319916
1714.22337	0.0874895677
1712.79366	0.0886247531
1711.36395	0.0896804482
1709.93424	0.0907384232
1708.50453	0.0918610618
1707.07482	0.0930759609
1705.64510	0.0943946838
1704.21539	0.0958516896
1702.78568	0.0975299329
1701.35597	0.0995460972
1699.92626	0.1019696891
1698.49655	0.1047077850
1697.06684	0.1074928269
1695.63713	0.1100573763
1694.20742	0.1122936755
1692.77771	0.1142362803
1691.34800	0.1159764230
1689.91828	0.1176220104
1688.48857	0.1193080619
1687.05886	0.1212102622
1685.62915	0.1234826967
1684.19944	0.1260823011
1682.76973	0.1286940724
1681.34002	0.1310097873
1679.91031	0.1329985708
1678.48060	0.1348299682
1677.05089	0.1366860718
1675.62118	0.1386635303
1674.19147	0.1407712847
1672.76175	0.1429826170
1671.33204	0.1452752650
1669.90233	0.1476087123
1668.47262	0.1499003172
1667.04291	0.1520783156
1665.61320	0.1541480422
1664.18349	0.1561682671
1662.75378	0.1581472158
1661.32407	0.1599784046
1659.89436	0.1614992768
1658.46465	0.1625952274
1657.03493	0.1632164568
1655.60522	0.1633145064
1654.17551	0.1628250927
1652.74580	0.1617778391
1651.31609	0.1603748351
1649.88638	0.1588201672
1648.45667	0.1571584493
1647.02696	0.1553784162
1645.59725	0.1535671204
1644.16754	0.1518840045
1642.73783	0.1504102796
1641.30811	0.1490761638
1639.87840	0.1477125138
1638.44869	0.1461386085
1637.01898	0.1442680210
1635.58927	0.1422072053
1634.15956	0.1401861906
1632.72985	0.1383242160
1631.30014	0.1365403384
1629.87043	0.1346562505
1628.44072	0.1324950159
1627.01101	0.1299350560
1625.58129	0.1269677132
1624.15158	0.1237287894
1622.72187	0.1204207465
1621.29216	0.1171667352
1619.86245	0.1139495373
1618.43274	0.1106986105
1617.00303	0.1074445546
1615.57332	0.1043764949
1614.14361	0.1017028019
1612.71390	0.0994705781
1611.28419	0.0975629538
1609.85447	0.0958320275
1608.42476	0.0942074582
1606.99505	0.0927111804
1605.56534	0.0913973600
1604.13563	0.0902893618
1602.70592	0.0893727243
1601.27621	0.0886245295
1599.84650	0.0880287141
1598.41679	0.0875660777
1596.98708	0.0872080177
1595.55737	0.0869317725
1594.12765	0.0867366120
1592.69794	0.0866363868
1591.26823	0.0866359472
1589.83852	0.0867227986
1588.40881	0.0868818760
1586.97910	0.0871109143
1585.54939	0.0874144062
1584.11968	0.0877858177
1582.68997	0.0882049873
1581.26026	0.0886556730
1579.83055	0.0891443640
1578.40083	0.0896984264
1576.97112	0.0903397202
1575.54141	0.0910561755
1574.11170	0.0918131247
1572.68199	0.0925955772
1571.25228	0.0934273005
1569.82257	0.0943380669
1568.39286	0.0953161269
1566.96315	0.0962981060
1565.53344	0.0972193927
1564.10373	0.0980750099
1562.67401	0.0989437699
1561.24430	0.0999831930
1559.81459	0.1013598070
1558.38488	0.1030473709
1556.95517	0.1047209650
1555.52546	0.1060754880
1554.09575	0.1070794761
1552.66604	0.1078302860
1551.23633	0.1083870232
1549.80662	0.1087427363
1548.37691	0.1088643521
1546.94719	0.1087301299
1545.51748	0.1083264649
1544.08777	0.1076177433
1542.65806	0.1065558344
1541.22835	0.1051942706
1539.79864	0.1037764475
1538.36893	0.1025422364
1536.93922	0.1015062183
1535.50951	0.1005344018
1534.07980	0.0995096713
1532.65009	0.0983996093
1531.22037	0.0972391739
1529.79066	0.0960727558
1528.36095	0.0949119106
1526.93124	0.0937385783
1525.50153	0.0925360247
1524.07182	0.0913111344
1522.64211	0.0900947303
1521.21240	0.0889239684
1519.78269	0.0878209248
1518.35298	0.0867803246
1516.92327	0.0857753903
1515.49356	0.0847742558
1514.06384	0.0837490484
1512.63413	0.0826614425
1511.20442	0.0814313889
1509.77471	0.0799330473
1508.34500	0.0780972913
1506.91529	0.0761218071
1505.48558	0.0744352043
1504.05587	0.0732673630
1502.62616	0.0724931806
1501.19645	0.0718774125
1499.76674	0.0712568760
1498.33702	0.0705792680
1496.90731	0.0698847696
1495.47760	0.0692427233
1494.04789	0.0686822981
1492.61818	0.0681835264
1491.18847	0.0677208751
1489.75876	0.0673021451
1488.32905	0.0669705868
1486.89934	0.0667663440
1485.46963	0.0666908845
1484.03992	0.0667134896
1482.61020	0.0668006390
1481.18049	0.0669332892
1479.75078	0.0671083853
1478.32107	0.0673341826
1476.89136	0.0676283985
1475.46165	0.0680146515
1474.03194	0.0685028285
1472.60223	0.0690543130
1471.17252	0.0695845038
1469.74281	0.0700200945
1468.31310	0.0703409389
1466.88338	0.0705711916
1465.45367	0.0707507208
1464.02396	0.0709114000
1462.59425	0.0710656121
1461.16454	0.0712130144
1459.73483	0.0713566616
1458.30512	0.0715060830
1456.87541	0.0716590732
1455.44570	0.0717838928
1454.01599	0.0718393847
1452.58628	0.0718060061
1451.15656	0.0716856346
1449.72685	0.0714904293
1448.29714	0.0712403730
1446.86743	0.0709645599
1445.43772	0.0706911087
1444.00801	0.0704318359
1442.57830	0.0701759085
1441.14859	0.0698987842
1439.71888	0.0695781484
1438.28917	0.0692135468
1436.85946	0.0688400567
1435.42974	0.0685167164
1434.00003	0.0682908744
1432.57032	0.0681751072
1431.14061	0.0681592971
1429.71090	0.0682302862
1428.28119	0.0683767349
1426.85148	0.0685852170
1425.42177	0.0688379034
1423.99206	0.0691185370
1422.56235	0.0694207326
1421.13264	0.0697496980
1419.70292	0.0701145455
1418.27321	0.0705111474
1416.84350	0.0709172189
1415.41379	0.0713077262
1413.98408	0.0716734529
1412.55437	0.0720216408
1411.12466	0.0723637193
1409.69495	0.0727043226
1408.26524	0.0730371699
1406.83553	0.0733489394
1405.40582	0.0736233667
1403.97610	0.0738421753
1402.54639	0.0739863813
1401.11668	0.0740401298
1399.68697	0.0739976764
1398.25726	0.0738673061
1396.82755	0.0736715496
1395.39784	0.0734387860
1393.96813	0.0731884614
1392.53842	0.0729199499
1391.10871	0.0726148188
1389.67900	0.0722499788
1388.24928	0.0718158111
1386.81957	0.0713280439
1385.38986	0.0708241835
1383.96015	0.0703409985
1382.53044	0.0698957443
1381.10073	0.0694866404
1379.67102	0.0691070631
1378.24131	0.0687562227
1376.81160	0.0684412792
1375.38189	0.0681740791
1373.95218	0.0679663047
1372.52246	0.0678232983
1371.09275	0.0677386969
1369.66304	0.0676920712
1368.23333	0.0676552877
1366.80362	0.0676039606
1365.37391	0.0675297678
1363.94420	0.0674463436
1362.51449	0.0673830062
1361.08478	0.0673677400
1359.65507	0.0674096718
1358.22536	0.0674973503
1356.79565	0.0676082224
1355.36593	0.0677207261
1353.93622	0.0678207874
1352.50651	0.0679053739
1351.07680	0.0679799542
1349.64709	0.0680511668
1348.21738	0.0681196898
1346.78767	0.0681779236
1345.35796	0.0682168081
1343.92825	0.0682339817
1342.49854	0.0682400465
1341.06883	0.0682564005
1339.63911	0.0683069602
1338.20940	0.0684048831
1336.77969	0.0685449019
1335.34998	0.0687091947
1333.92027	0.0688798502
1332.49056	0.0690483674
1331.06085	0.0692154244
1329.63114	0.0693861693
1328.20143	0.0695651770
1326.77172	0.0697539896
1325.34201	0.0699516982
1323.91229	0.0701557994
1322.48258	0.0703617260
1321.05287	0.0705652907
1319.62316	0.0707644075
1318.19345	0.0709612072
1316.76374	0.0711601079
1315.33403	0.0713634044
1313.90432	0.0715685934
1312.47461	0.0717698783
1311.04490	0.0719624609
1309.61519	0.0721441880
1308.18547	0.0723157451
1306.75576	0.0724778920
1305.32605	0.0726304874
1303.89634	0.0727708638
1302.46663	0.0728949308
1301.03692	0.0729990453
1299.60721	0.0730827749
1298.17750	0.0731508434
1296.74779	0.0732134357
1295.31808	0.0732823461
1293.88837	0.0733662322
1292.45865	0.0734675080
1291.02894	0.0735815987
1289.59923	0.0736986324
1288.16952	0.0738070756
1286.73981	0.0738979056
1285.31010	0.0739688873
1283.88039	0.0740253329
1282.45068	0.0740776733
1281.02097	0.0741357058
1279.59126	0.0742052868
1278.16155	0.0742883310
1276.73183	0.0743869692
1275.30212	0.0745073259
1273.87241	0.0746605098
1272.44270	0.0748580098
1271.01299	0.0751048028
1269.58328	0.0753958225
1268.15357	0.0757191852
1266.72386	0.0760635436
1265.29415	0.0764249638
1263.86444	0.0768084377
1262.43473	0.0772218406
1261.00501	0.0776687264
1259.57530	0.0781436861
1258.14559	0.0786327496
1256.71588	0.0791166797
1255.28617	0.0795753747
1253.85646	0.0799904615
1252.42675	0.0803463161
1250.99704	0.0806305036
1249.56733	0.0808322579
1248.13762	0.0809435621
1246.70791	0.0809599012
1245.27819	0.0808838680
1243.84848	0.0807268173
1242.41877	0.0805057585
1240.98906	0.0802379102
1239.55935	0.0799360648
1238.12964	0.0796075910
1236.69993	0.0792568997
1235.27022	0.0788887739
1233.84051	0.0785087943
1232.41080	0.0781241879
1230.98109	0.0777415708
1229.55137	0.0773659647
1228.12166	0.0769991279
1226.69195	0.0766381174
1225.26224	0.0762771070
1223.83253	0.0759104118
1222.40282	0.0755350068
1220.97311	0.0751515776
1219.54340	0.0747629553
1218.11369	0.0743730813
1216.68398	0.0739877373
1215.25427	0.0736156404
1213.82455	0.0732674226
1212.39484	0.0729527101
1210.96513	0.0726771504
1209.53542	0.0724425614
1208.10571	0.0722483918
1206.67600	0.0720925704
1205.24629	0.0719729736
1203.81658	0.0718879849
1202.38687	0.0718403384
1200.95716	0.0718395412
1199.52745	0.0719017014
1198.09774	0.0720425770
1196.66802	0.0722694546
1195.23831	0.0725776479
1193.80860	0.0729526803
1192.37889	0.0733777508
1190.94918	0.0738388672
1189.51947	0.0743250102
1188.08976	0.0748259947
1186.66005	0.0753318444
1185.23034	0.0758368000
1183.80063	0.0763455853
1182.37092	0.0768760964
1180.94120	0.0774528384
1179.51149	0.0780945048
1178.08178	0.0788026676
1176.65207	0.0795609802
1175.22236	0.0803445429
1173.79265	0.0811333284
1172.36294	0.0819186419
1170.93323	0.0827011168
1169.50352	0.0834833384
1168.07381	0.0842643678
1166.64410	0.0850405023
1165.21438	0.0858097374
1163.78467	0.0865757540
1162.35496	0.0873471126
1160.92525	0.0881328732
1159.49554	0.0889371186
1158.06583	0.0897563845
1156.63612	0.0905811489
1155.20641	0.0914002657
1153.77670	0.0922058523
1152.34699	0.0929962322
1150.91728	0.0937764198
1149.48756	0.0945573375
1148.05785	0.0953538120
1146.62814	0.0961823761
1145.19843	0.0970600769
1143.76872	0.0980012417
1142.33901	0.0990163982
1140.90930	0.1001099795
1139.47959	0.1012795269
1138.04988	0.1025159135
1136.62017	0.1038068533
1135.19046	0.1051414758
1133.76074	0.1065145433
1132.33103	0.1079259589
1130.90132	0.1093769297
1129.47161	0.1108649820
1128.04190	0.1123813838
1126.61219	0.1139122173
1125.18248	0.1154421493
1123.75277	0.1169580445
1122.32306	0.1184512600
1120.89335	0.1199171171
1119.46364	0.1213539392
1118.03392	0.1227603331
1116.60421	0.1241335347
1115.17450	0.1254696548
1113.74479	0.1267641485
1112.31508	0.1280135214
1110.88537	0.1292137802
1109.45566	0.1303587705
1108.02595	0.1314384341
1106.59624	0.1324397326
1105.16653	0.1333489865
1103.73682	0.1341557205
1102.30710	0.1348548979
1100.87739	0.1354487091
1099.44768	0.1359457672
1098.01797	0.1363593489
1096.58826	0.1367033273
1095.15855	0.1369890124
1093.72884	0.1372223198
1092.29913	0.1374012679
1090.86942	0.1375147253
1089.43971	0.1375446022
1088.01000	0.1374712437
1086.58028	0.1372813284
1085.15057	0.1369715184
1083.72086	0.1365459859
1082.29115	0.1360089630
1080.86144	0.1353611350
1079.43173	0.1346006244
1078.00202	0.1337263137
1076.57231	0.1327411681
1075.14260	0.1316523701
1073.71289	0.1304727197
1072.28318	0.1292193234
1070.85346	0.1279115826
1069.42375	0.1265636533
1067.99404	0.1251775771
1066.56433	0.1237425879
1065.13462	0.1222415641
1063.70491	0.1206576899
1062.27520	0.1189795807
1060.84549	0.1172011122
1059.41578	0.1153219193
1057.98607	0.1133498996
1056.55636	0.1113028601
1055.12664	0.1092072725
1053.69693	0.1070935503
1052.26722	0.1049907282
1050.83751	0.1029225811
1049.40780	0.1009063274
1047.97809	0.0989514738
1046.54838	0.0970618203
1045.11867	0.0952392444
1043.68896	0.0934885144
1042.25925	0.0918191001
1040.82954	0.0902421102
1039.39983	0.0887639821
1037.97011	0.0873811990
1036.54040	0.0860815793
1035.11069	0.0848495588
1033.68098	0.0836735889
1032.25127	0.0825486332
1030.82156	0.0814766660
1029.39185	0.0804648474
1027.96214	0.0795228034
1026.53243	0.0786585286
1025.10272	0.0778729245
1023.67301	0.0771575198
1022.24329	0.0765005052
1020.81358	0.0758997202
1019.38387	0.0753743649
1017.95416	0.0749633908
1016.52445	0.0747096688
1015.09474	0.0746393949
1013.66503	0.0747521669
1012.23532	0.0750262737
1010.80561	0.0754362568
1009.37590	0.0759663731
1007.94619	0.0766120851
1006.51647	0.0773704499
1005.08676	0.0782297179
1003.65705	0.0791659132
1002.22734	0.0801493600
1000.79763	0.0811519250
999.36792	0.0821497440
997.93821	0.0831174999
996.50850	0.0840229318
995.07879	0.0848278403
993.64908	0.0854963362
992.21937	0.0860042274
990.78965	0.0863421932
989.35994	0.0865102261
987.93023	0.0865090564
986.50052	0.0863355547
985.07081	0.0859858990
983.64110	0.0854628906
982.21139	0.0847828761
980.78168	0.0839740932
979.35197	0.0830677897
977.92226	0.0820860043
976.49255	0.0810338631
975.06283	0.0799047574
973.63312	0.0786940902
972.20341	0.0774145350
970.77370	0.0761002153
969.34399	0.0747980103
967.91428	0.0735517591
966.48457	0.0723909065
965.05486	0.0713278875
963.62515	0.0703632757
962.19544	0.0694922954
960.76573	0.0687079504
959.33601	0.0680021793
957.90630	0.0673665032
956.47659	0.0667934865
955.04688	0.0662811399
953.61717	0.0658336729
952.18746	0.0654597059
950.75775	0.0651660264
949.32804	0.0649513602
947.89833	0.0648048371
946.46862	0.0647079274
945.03891	0.0646410212
943.60919	0.0645878538
942.17948	0.0645376369
940.74977	0.0644853860
939.32006	0.0644283891
937.89035	0.0643632710
936.46064	0.0642841086
935.03093	0.0641855523
933.60122	0.0640676320
932.17151	0.0639395788
930.74180	0.0638149455
929.31209	0.0637015402
927.88237	0.0635936111
926.45266	0.0634748936
925.02295	0.0633313805
923.59324	0.0631615371
922.16353	0.0629756302
920.73382	0.0627833083
919.30411	0.0625823140
917.87440	0.0623570308
916.44469	0.0620896034
915.01498	0.0617741421
913.58527	0.0614237785
912.15555	0.0610655062
910.72584	0.0607295595
909.29613	0.0604401939
907.86642	0.0602141134
906.43671	0.0600624867
905.00700	0.0599925779
903.57729	0.0600060709
902.14758	0.0600958690
900.71787	0.0602467917
899.28816	0.0604406968
897.85845	0.0606638603
896.42873	0.0609117374
894.99902	0.0611882769
893.56931	0.0615011640
892.13960	0.0618552305
890.70989	0.0622467473
889.28018	0.0626634061
887.85047	0.0630885810
886.42076	0.0635079071
884.99105	0.0639141724
883.56134	0.0643041283
882.13163	0.0646722391
880.70192	0.0650074035
879.27220	0.0652976632
877.84249	0.0655405223
876.41278	0.0657481924
874.98307	0.0659423992
873.55336	0.0661413670
872.12365	0.0663489625
870.69394	0.0665517300
869.26423	0.0667259842
867.83452	0.0668484345
866.40481	0.0669057444
864.97510	0.0668980181
863.54538	0.0668332502
862.11567	0.0667175651
860.68596	0.0665469989
859.25625	0.0663096309
857.82654	0.0659955516
856.39683	0.0656071454
854.96712	0.0651588365
853.53741	0.0646709427
852.10770	0.0641634911
850.67799	0.0636573285
849.24828	0.0631753653
847.81856	0.0627377257
846.38885	0.0623521917
844.95914	0.0620087087
843.52943	0.0616846830
842.09972	0.0613574982
840.67001	0.0610128939
839.24030	0.0606485605
837.81059	0.0602717437
836.38088	0.0598956123
834.95117	0.0595323928
833.52146	0.0591838025
832.09174	0.0588354953
830.66203	0.0584640093
829.23232	0.0580543429
827.80261	0.0576150343
826.37290	0.0571777597
824.94319	0.0567789562
823.51348	0.0564410575
822.08377	0.0561635792
820.65406	0.0559316427
819.22435	0.0557307079
817.79464	0.0555579849
816.36492	0.0554220639
814.93521	0.0553352535
813.50550	0.0553006493
812.07579	0.0553038232
810.64608	0.0553145856
809.21637	0.0552996174
807.78666	0.0552379973
806.35695	0.0551306233
804.92724	0.0549981855
803.49753	0.0548687540
802.06782	0.0547646433
800.63810	0.0546939969
799.20839	0.0546506047
797.77868	0.0546213649
796.34897	0.0545979105
794.91926	0.0545834117
793.48955	0.0545884594
792.05984	0.0546168163
790.63013	0.0546567403
789.20042	0.0546853356
787.77071	0.0546865389
786.34100	0.0546647236
784.91128	0.0546420030
783.48157	0.0546407402
782.05186	0.0546642542
780.62215	0.0546925850
779.19244	0.0546953157
777.76273	0.0546538346
776.33302	0.0545746647
774.90331	0.0544867329
773.47360	0.0544239357
772.04389	0.0544075929
770.61418	0.0544381402
769.18446	0.0544994697
767.75475	0.0545688793
766.32504	0.0546253286
764.89533	0.0546545088
763.46562	0.0546536259
762.03591	0.0546342209
760.60620	0.0546164028
759.17649	0.0546165220
757.74678	0.0546375103
756.31707	0.0546719767
754.88736	0.0547129922
753.45764	0.0547627024
752.02793	0.0548257828
750.59822	0.0548967458
749.16851	0.0549551174
747.73880	0.0549753569
746.30909	0.0549410135
744.87938	0.0548528619
743.44967	0.0547288768
742.01996	0.0546013154
740.59025	0.0545109138
739.16054	0.0544937775
737.73082	0.0545621887
736.30111	0.0546947904
734.87140	0.0548509248
733.44169	0.0550007112
732.01198	0.0551449358
730.58227	0.0553062335
729.15256	0.0555015057
727.72285	0.0557216108
726.29314	0.0559365340
724.86343	0.0561187118
723.43372	0.0562635176
722.00401	0.0563876480
720.57429	0.0565128736
719.14458	0.0566482544
717.71487	0.0567860939
716.28516	0.0569156557
714.85545	0.0570372865
713.42574	0.0571661256
711.99603	0.0573201701
710.56632	0.0575042330
709.13661	0.0577050485
707.70690	0.0579011627
706.27719	0.0580781624
704.84747	0.0582354032
703.41776	0.0583777465
701.98805	0.0585036054
700.55834	0.0586021319
699.12863	0.0586620085
697.69892	0.0586830452
696.26921	0.0586770587
694.83950	0.0586557277
693.40979	0.0586163513
691.98008	0.0585411638
690.55037	0.0584128052
689.12065	0.0582385398
687.69094	0.0580576882
686.26123	0.0579253584
684.83152	0.0578790680
683.40181	0.0579152703
681.97210	0.0579931587
680.54239	0.0580626279
679.11268	0.0580928996
677.68297	0.0580825433
676.25326	0.0580475405
674.82355	0.0580038987
673.39383	0.0579598807
671.96412	0.0579221062
670.53441	0.0579055399
669.10470	0.0579310656
667.67499	0.0580050834
666.24528	0.0580995865
664.81557	0.0581704639
663.38586	0.0581862107
661.95615	0.0581334978
660.52644	0.0580112971
659.09673	0.0578303896
657.66701	0.0576181971
656.23730	0.0574160032
654.80759	0.0572660305
653.37788	0.0571942106
651.94817	0.0571948886
650.51846	0.0572306812
649.08875	0.0572495200
647.65904	0.0572128408
646.22933	0.0571147203
644.79962	0.0569770150
643.36991	0.0568306446
641.94019	0.0566987768
640.51048	0.0565964691
639.08077	0.0565354303
637.65106	0.0565229580
636.22135	0.0565476641
634.79164	0.0565666854
633.36193	0.0565101914
631.93222	0.0563062727
630.50251	0.0559120663
629.07280	0.0553339906
627.64309	0.0546260029
626.21337	0.0538707562
624.78366	0.0531519800
623.35395	0.0525266714
621.92424	0.0520172454
620.49453	0.0516240224
619.06482	0.0513419695
617.63511	0.0511630327
616.20540	0.0510661826
614.77569	0.0510152616
613.34598	0.0509637631
611.91627	0.0508640483
610.48655	0.0506837666
609.05684	0.0504310466
607.62713	0.0501715280
606.19742	0.0500095114
604.76771	0.0500335023
603.33800	0.0502613187
601.90829	0.0506299250
600.47858	0.0510343611
599.04887	0.0513819717
