3997.47168	0.0531688631
3996.04197	0.0531762056
3994.61226	0.0531775802
3993.18255	0.0531915091
3991.75284	0.0532317683
3990.32312	0.0532984324
3988.89341	0.0533763766
3987.46370	0.0534410104
3986.03399	0.0534689985
3984.60428	0.0534492657
3983.17457	0.0533907786
3981.74486	0.0533174872
3980.31515	0.0532554723
3978.88544	0.0532178432
3977.45573	0.0531987362
3976.02602	0.0531816185
3974.59630	0.0531538241
3973.16659	0.0531186610
3971.73688	0.0530945249
3970.30717	0.0531022474
3968.87746	0.0531512201
3967.44775	0.0532295182
3966.01804	0.0533090569
3964.58833	0.0533582866
3963.15862	0.0533607751
3961.72891	0.0533261485
3960.29920	0.0532877520
3958.86948	0.0532799661
3957.43977	0.0533143543
3956.01006	0.0533717200
3954.58035	0.0534164496
3953.15064	0.0534226559
3951.72093	0.0533910692
3950.29122	0.0533431545
3948.86151	0.0533010364
3947.43180	0.0532682315
3946.00209	0.0532325320
3944.57238	0.0531858318
3943.14266	0.0531413332
3941.71295	0.0531303622
3940.28324	0.0531773753
3938.85353	0.0532779470
3937.42382	0.0533964261
3935.99411	0.0534848385
3934.56440	0.0535091385
3933.13469	0.0534674749
3931.70498	0.0533896647
3930.27527	0.0533162281
3928.84556	0.0532718599
3927.41585	0.0532559715
3925.98613	0.0532537177
3924.55642	0.0532492995
3923.12671	0.0532370359
3921.69700	0.0532202721
3920.26729	0.0532077774
3918.83758	0.0532082729
3917.40787	0.0532257408
3915.97816	0.0532576367
3914.54845	0.0532974675
3913.11874	0.0533383228
3911.68903	0.0533757024
3910.25931	0.0534050614
3908.82960	0.0534190238
3907.39989	0.0534052961
3905.97018	0.0533476621
3904.54047	0.0532363653
3903.11076	0.0530854575
3901.68105	0.0529427938
3900.25134	0.0528670922
3898.82163	0.0528856292
3897.39192	0.0529794060
3895.96221	0.0531028062
3894.53249	0.0532134511
3893.10278	0.0532909706
3891.67307	0.0533443540
3890.24336	0.0533973910
3888.81365	0.0534620322
3887.38394	0.0535200052
3885.95423	0.0535317436
3884.52452	0.0534684435
3883.09481	0.0533407517
3881.66510	0.0532019250
3880.23539	0.0531135984
3878.80567	0.0531047955
3877.37596	0.0531598218
3875.94625	0.0532316528
3874.51654	0.0532686412
3873.08683	0.0532370359
3871.65712	0.0531393439
3870.22741	0.0530161671
3868.79770	0.0529227033
3867.36799	0.0528926440
3865.93828	0.0529266521
3864.50857	0.0530071892
3863.07885	0.0531162918
3861.64914	0.0532380603
3860.21943	0.0533487163
3858.78972	0.0534056760
3857.36001	0.0533500910
3855.93030	0.0531358048
3854.50059	0.0528126247
3853.07088	0.0525784157
3851.64117	0.0526310690
3850.21146	0.0529582314
3848.78175	0.0533924177
3847.35203	0.0537724197
3845.92232	0.0540010035
3844.49261	0.0540422201
3843.06290	0.0539173521
3841.63319	0.0536961332
3840.20348	0.0534730703
3838.77377	0.0533286966
3837.34406	0.0532981679
3835.91435	0.0533675924
3834.48464	0.0534989201
3833.05493	0.0536528714
3831.62521	0.0538006350
3830.19550	0.0539237112
3828.76579	0.0540109985
3827.33608	0.0540566146
3825.90637	0.0540548265
3824.47666	0.0540002696
3823.04695	0.0538952835
3821.61724	0.0537611693
3820.18753	0.0536430590
3818.75782	0.0535906926
3817.32811	0.0536309332
3815.89839	0.0537569784
3814.46868	0.0539388917
3813.03897	0.0541375652
3811.60926	0.0543128029
3810.17955	0.0544250533
3808.74984	0.0544453003
3807.32013	0.0543690138
3805.89042	0.0542265996
3804.46071	0.0540727377
3803.03100	0.0539600849
3801.60129	0.0539229214
3800.17157	0.0539773181
3798.74186	0.0541223772
3797.31215	0.0543394126
3795.88244	0.0545954742
3794.45273	0.0548529811
3793.02302	0.0550791062
3791.59331	0.0552482568
3790.16360	0.0553437807
3788.73389	0.0553641878
3787.30418	0.0553308129
3785.87447	0.0552852713
3784.44475	0.0552653074
3783.01504	0.0552785993
3781.58533	0.0553017072
3780.15562	0.0553078204
3778.72591	0.0552960336
3777.29620	0.0552884750
3775.86649	0.0553005598
3774.43678	0.0553231686
3773.00707	0.0553332269
3771.57736	0.0553163774
3770.14765	0.0552802719
3768.71794	0.0552502573
3767.28822	0.0552506670
3765.85851	0.0552884750
3764.42880	0.0553496033
3762.99909	0.0554121509
3761.56938	0.0554576218
3760.13967	0.0554838553
3758.70996	0.0555016510
3757.28025	0.0555135347
3755.85054	0.0554926507
3754.42083	0.0553912148
3752.99112	0.0551806204
3751.56140	0.0549023263
3750.13169	0.0546673387
3748.70198	0.0545780100
3747.27227	0.0546587072
3745.84256	0.0548773296
3744.41285	0.0551992245
3742.98314	0.0555937290
3741.55343	0.0560070574
3740.12372	0.0563589409
3738.69401	0.0565607287
3737.26430	0.0565499663
3735.83458	0.0563465320
3734.40487	0.0560901389
3732.97516	0.0559608229
3731.54545	0.0560315885
3730.11574	0.0562411807
3728.68603	0.0564836860
3727.25632	0.0566803142
3725.82661	0.0568039715
3724.39690	0.0568760857
3722.96719	0.0569422469
3721.53748	0.0570408590
3720.10776	0.0571839325
3718.67805	0.0573567413
3717.24834	0.0575279035
3715.81863	0.0576537549
3714.38892	0.0576940812
3712.95921	0.0576437637
3711.52950	0.0575696044
3710.09979	0.0575853288
3708.67008	0.0577569641
3707.24037	0.0580519475
3705.81066	0.0583909824
3704.38094	0.0587099828
3702.95123	0.0589830466
3701.52152	0.0592184812
3700.09181	0.0594435409
3698.66210	0.0596863851
3697.23239	0.0599609874
3695.80268	0.0602619611
3694.37297	0.0605693310
3692.94326	0.0608544387
3691.51355	0.0610933937
3690.08384	0.0612854436
3688.65412	0.0614650212
3687.22441	0.0616839640
3685.79470	0.0619758070
3684.36499	0.0623372495
3682.93528	0.0627372488
3681.50557	0.0631306693
3680.07586	0.0634761825
3678.64615	0.0637570843
3677.21644	0.0639981851
3675.78673	0.0642606989
3674.35702	0.0646072030
3672.92730	0.0650697351
3671.49759	0.0656544492
3670.06788	0.0663549602
3668.63817	0.0671513826
3667.20846	0.0680129528
3665.77875	0.0689106137
3664.34904	0.0698245689
3662.91933	0.0707364380
3661.48962	0.0716192350
3660.05991	0.0724471807
3658.63020	0.0732149035
3657.20048	0.0739480779
3655.77077	0.0746839046
3654.34106	0.0754414946
3652.91135	0.0762170032
3651.48164	0.0770132840
3650.05193	0.0778686479
3648.62222	0.0788437650
3647.19251	0.0799592435
3645.76280	0.0811723620
3644.33309	0.0824233964
3642.90338	0.0836723968
3641.47366	0.0848980248
3640.04395	0.0860916451
3638.61424	0.0872544050
3637.18453	0.0883900523
3635.75482	0.0894933641
3634.32511	0.0905510485
3632.89540	0.0915635899
3631.46569	0.0925711319
3630.03598	0.0936498344
3628.60627	0.0948540047
3627.17656	0.0961562470
3625.74684	0.0974788964
3624.31713	0.0987672433
3622.88742	0.1000084877
3621.45771	0.1012069732
3620.02800	0.1023691595
3618.59829	0.1035045087
3617.16858	0.1046291590
3615.73887	0.1057573557
3614.30916	0.1068972275
3612.87945	0.1080601960
3611.44974	0.1092649922
3610.02003	0.1105224863
3608.59031	0.1118140742
3607.16060	0.1130983308
3605.73089	0.1143478602
3604.30118	0.1155650169
3602.87147	0.1167661250
3601.44176	0.1179554090
3600.01205	0.1191251427
3598.58234	0.1202753633
3597.15263	0.1214229912
3595.72292	0.1225867644
3594.29321	0.1237650290
3592.86349	0.1249403208
3591.43378	0.1261022687
3590.00407	0.1272580922
3588.57436	0.1284203380
3587.14465	0.1295886785
3585.71494	0.1307499409
3584.28523	0.1318926960
3582.85552	0.1330124289
3581.42581	0.1341076046
3579.99610	0.1351815462
3578.56639	0.1362489462
3577.13667	0.1373318583
3575.70696	0.1384408027
3574.27725	0.1395643055
3572.84754	0.1406823397
3571.41783	0.1417890489
3569.98812	0.1428974271
3568.55841	0.1440210193
3567.12870	0.1451540738
3565.69899	0.1462773234
3564.26928	0.1473815739
3562.83957	0.1484735161
3561.40985	0.1495603621
3559.98014	0.1506434530
3558.55043	0.1517259032
3557.12072	0.1528199613
3555.69101	0.1539380401
3554.26130	0.1550823897
3552.83159	0.1562473476
3551.40188	0.1574293822
3549.97217	0.1586272120
3548.54246	0.1598264426
3547.11275	0.1609923542
3545.68303	0.1620896757
3544.25332	0.1631111801
3542.82361	0.1640844047
3541.39390	0.1650468409
3539.96419	0.1660226285
3538.53448	0.1670226157
3537.10477	0.1680511534
3535.67506	0.1691060215
3534.24535	0.1701755524
3532.81564	0.1712446958
3531.38593	0.1723073125
3529.95621	0.1733680367
3528.52650	0.1744269282
3527.09679	0.1754705459
3525.66708	0.1764832437
3524.23737	0.1774680912
3522.80766	0.1784490049
3521.37795	0.1794511080
3519.94824	0.1804812998
3518.51853	0.1815291643
3517.08882	0.1825761795
3515.65911	0.1836014539
3514.22939	0.1845854521
3512.79968	0.1855213940
3511.36997	0.1864270270
3509.94026	0.1873363107
3508.51055	0.1882729828
3507.08084	0.1892303228
3505.65113	0.1901845187
3504.22142	0.1911225766
3502.79171	0.1920520216
3501.36200	0.1929820925
3499.93229	0.1939030439
3498.50257	0.1947924942
3497.07286	0.1956373006
3495.64315	0.1964436024
3494.21344	0.1972288936
3492.78373	0.1980100870
3491.35402	0.1988014579
3489.92431	0.1996139735
3488.49460	0.2004509717
3487.06489	0.2013019025
3485.63518	0.2021500468
3484.20547	0.2029864192
3482.77575	0.2038136870
3481.34604	0.2046366483
3479.91633	0.2054525167
3478.48662	0.2062550783
3477.05691	0.2070451528
3475.62720	0.2078272700
3474.19749	0.2085989863
3472.76778	0.2093471438
3471.33807	0.2100589722
3469.90836	0.2107343674
3468.47865	0.2113835216
3467.04893	0.2120152116
3465.61922	0.2126342356
3464.18951	0.2132469416
3462.75980	0.2138652951
3461.33009	0.2144975960
3459.90038	0.2151384801
3458.47067	0.2157727182
3457.04096	0.2163884789
3455.61125	0.2169822305
3454.18154	0.2175560743
3452.75183	0.2181122452
3451.32212	0.2186543196
3449.89240	0.2191885710
3448.46269	0.2197197527
3447.03298	0.2202479690
3445.60327	0.2207723856
3444.17356	0.2212994397
3442.74385	0.2218390256
3441.31414	0.2223886251
3439.88443	0.2229275256
3438.45472	0.2234310061
3437.02501	0.2238923609
3435.59530	0.2243276387
3434.16558	0.2247575074
3432.73587	0.2251893133
3431.30616	0.2256175578
3429.87645	0.2260368019
3428.44674	0.2264488786
3427.01703	0.2268566191
3425.58732	0.2272586375
3424.15761	0.2276496440
3422.72790	0.2280278504
3421.29819	0.2283952981
3419.86848	0.2287570387
3418.43876	0.2291196287
3417.00905	0.2294926494
3415.57934	0.2298819423
3414.14963	0.2302789390
3412.71992	0.2306605428
3411.29021	0.2310029417
3409.86050	0.2312997133
3408.43079	0.2315653712
3407.00108	0.2318235338
3405.57137	0.2320918590
3404.14166	0.2323752642
3402.71194	0.2326670140
3401.28223	0.2329505831
3399.85252	0.2332060784
3398.42281	0.2334205657
3396.99310	0.2335994840
3395.56339	0.2337628603
3394.13368	0.2339285612
3392.70397	0.2340973318
3391.27426	0.2342561036
3389.84455	0.2343960553
3388.41484	0.2345247567
3386.98512	0.2346609384
3385.55541	0.2348204851
3384.12570	0.2350066453
3382.69599	0.2352086753
3381.26628	0.2354091108
3379.83657	0.2355915159
3378.40686	0.2357522994
3376.97715	0.2359061390
3375.54744	0.2360800654
3374.11773	0.2362962365
3372.68802	0.2365541607
3371.25830	0.2368282378
3369.82859	0.2370812893
3368.39888	0.2372812927
3366.96917	0.2374116182
3365.53946	0.2374735624
3364.10975	0.2374817878
3362.68004	0.2374592572
3361.25033	0.2374309003
3359.82062	0.2374245524
3358.39091	0.2374716401
3356.96120	0.2376013994
3355.53148	0.2378208935
3354.10177	0.2380976379
3352.67206	0.2383661866
3351.24235	0.2385636419
3349.81264	0.2386700511
3348.38293	0.2387178540
3346.95322	0.2387641072
3345.52351	0.2388527989
3344.09380	0.2389958054
3342.66409	0.2391802073
3341.23438	0.2393839210
3339.80466	0.2395831496
3338.37495	0.2397538275
3336.94524	0.2398776710
3335.51553	0.2399552017
3334.08582	0.2400119305
3332.65611	0.2400890440
3331.22640	0.2402216047
3329.79669	0.2404185236
3328.36698	0.2406584918
3326.93727	0.2409040183
3325.50756	0.2411267161
3324.07784	0.2413256168
3322.64813	0.2415240556
3321.21842	0.2417453974
3319.78871	0.2419917583
3318.35900	0.2422443181
3316.92929	0.2424906045
3315.49958	0.2427466661
3314.06987	0.2430528402
3312.64016	0.2434392124
3311.21045	0.2438954562
3309.78074	0.2443679124
3308.35102	0.2447884679
3306.92131	0.2451075166
3305.49160	0.2453138977
3304.06189	0.2454330474
3302.63218	0.2455147654
3301.20247	0.2456127703
3299.77276	0.2457613647
3298.34305	0.2459579706
3296.91334	0.2461629659
3295.48363	0.2463209629
3294.05392	0.2463884354
3292.62421	0.2463537753
3291.19449	0.2462357581
3289.76478	0.2460671663
3288.33507	0.2458761185
3286.90536	0.2456726134
3285.47565	0.2454505265
3284.04594	0.2451984733
3282.61623	0.2449130714
3281.18652	0.2446027547
3279.75681	0.2442804873
3278.32710	0.2439482957
3276.89739	0.2435867786
3275.46767	0.2431569099
3274.03796	0.2426154912
3272.60825	0.2419359535
3271.17854	0.2411254942
3269.74883	0.2402268350
3268.31912	0.2393015474
3266.88941	0.2384012789
3265.45970	0.2375449985
3264.02999	0.2367158830
3262.60028	0.2358838171
3261.17057	0.2350296378
3259.74085	0.2341557741
3258.31114	0.2332753539
3256.88143	0.2323985696
3255.45172	0.2315321416
3254.02201	0.2306883186
3252.59230	0.2298874855
3251.16259	0.2291451544
3249.73288	0.2284543365
3248.30317	0.2277829349
3246.87346	0.2270920575
3245.44375	0.2263618112
3244.01403	0.2256034911
3242.58432	0.2248525918
3241.15461	0.2241485268
3239.72490	0.2235146165
3238.29519	0.2229472548
3236.86548	0.2224193364
3235.43577	0.2218936831
3234.00606	0.2213431299
3232.57635	0.2207634896
3231.14664	0.2201719731
3229.71693	0.2195927650
3228.28721	0.2190416902
3226.85750	0.2185186595
3225.42779	0.2180136740
3223.99808	0.2175152004
3222.56837	0.2170180231
3221.13866	0.2165216804
3219.70895	0.2160280198
3218.27924	0.2155366689
3216.84953	0.2150416672
3215.41982	0.2145335376
3213.99011	0.2140040398
3212.56039	0.2134534866
3211.13068	0.2128925025
3209.70097	0.2123369724
3208.27126	0.2117983103
3206.84155	0.2112776041
3205.41184	0.2107667476
3203.98213	0.2102551460
3202.55242	0.2097358704
3201.12271	0.2092086226
3199.69300	0.2086787969
3198.26329	0.2081531733
3196.83357	0.2076357454
3195.40386	0.2071233839
3193.97415	0.2066077590
3192.54444	0.2060770094
3191.11473	0.2055205852
3189.68502	0.2049306631
3188.25531	0.2043045759
3186.82560	0.2036480010
3185.39589	0.2029755861
3183.96618	0.2023059130
3182.53647	0.2016532123
3181.10675	0.2010198236
3179.67704	0.2003980428
3178.24733	0.1997775584
3176.81762	0.1991523504
3175.38791	0.1985228360
3173.95820	0.1978891790
3172.52849	0.1972490698
3171.09878	0.1965998858
3169.66907	0.1959428936
3168.23936	0.1952865273
3166.80965	0.1946411878
3165.37993	0.1940128058
3163.95022	0.1933998317
3162.52051	0.1927974969
3161.09080	0.1922029853
3159.66109	0.1916188449
3158.23138	0.1910463274
3156.80167	0.1904780269
3155.37196	0.1898953021
3153.94225	0.1892765909
3152.51254	0.1886109859
3151.08283	0.1879070699
3149.65311	0.1871898174
3148.22340	0.1864893436
3146.79369	0.1858289540
3145.36398	0.1852182895
3143.93427	0.1846525222
3142.50456	0.1841156930
3141.07485	0.1835850179
3139.64514	0.1830400378
3138.21543	0.1824709922
3136.78572	0.1818833798
3135.35601	0.1812932044
3133.92629	0.1807161272
3132.49658	0.1801561117
3131.06687	0.1796054691
3129.63716	0.1790531427
3128.20745	0.1784967482
3126.77774	0.1779467613
3125.34803	0.1774217039
3123.91832	0.1769346148
3122.48861	0.1764845997
3121.05890	0.1760552078
3119.62919	0.1756238490
3118.19948	0.1751732975
3116.76976	0.1747002155
3115.34005	0.1742141694
3113.91034	0.1737305820
3112.48063	0.1732585430
3111.05092	0.1727942079
3109.62121	0.1723241061
3108.19150	0.1718375087
3106.76179	0.1713391691
3105.33208	0.1708488017
3103.90237	0.1703863442
3102.47266	0.1699545979
3101.04294	0.1695355922
3099.61323	0.1691066325
3098.18352	0.1686622053
3096.75381	0.1682218313
3095.32410	0.1678160727
3093.89439	0.1674627215
3092.46468	0.1671538204
3091.03497	0.1668612957
3089.60526	0.1665540636
3088.17555	0.1662137359
3086.74584	0.1658379883
3085.31612	0.1654371023
3083.88641	0.1650239378
3082.45670	0.1646063626
3081.02699	0.1641817093
3079.59728	0.1637390256
3078.16757	0.1632679105
3076.73786	0.1627697647
3075.30815	0.1622629166
3073.87844	0.1617757678
3072.44873	0.1613292992
3071.01902	0.1609214842
3069.58930	0.1605256647
3068.15959	0.1601040214
3066.72988	0.1596293449
3065.30017	0.1590987742
3063.87046	0.1585315913
3062.44075	0.1579535306
3061.01104	0.1573829949
3059.58133	0.1568274051
3058.15162	0.1562875211
3056.72191	0.1557622999
3055.29220	0.1552468240
3053.86248	0.1547306031
3052.43277	0.1542004645
3051.00306	0.1536516696
3049.57335	0.1530936062
3048.14364	0.1525434107
3046.71393	0.1520093977
3045.28422	0.1514812261
3043.85451	0.1509359777
3042.42480	0.1503578722
3040.99509	0.1497530192
3039.56538	0.1491460800
3038.13566	0.1485606134
3036.70595	0.1479997337
3035.27624	0.1474452168
3033.84653	0.1468739510
3032.41682	0.1462786645
3030.98711	0.1456744969
3029.55740	0.1450886577
3028.12769	0.1445423663
3026.69798	0.1440398842
3025.26827	0.1435706913
3023.83856	0.1431191117
3022.40884	0.1426731646
3020.97913	0.1422275752
3019.54942	0.1417811066
3018.11971	0.1413322389
3016.69000	0.1408756673
3015.26029	0.1404022723
3013.83058	0.1399040818
3012.40087	0.1393809021
3010.97116	0.1388447583
3009.54145	0.1383173913
3008.11174	0.1378227323
3006.68202	0.1373788565
3005.25231	0.1369946897
3003.82260	0.1366710663
3002.39289	0.1364031136
3000.96318	0.1361815035
2999.53347	0.1359952986
2998.10376	0.1358336359
2996.67405	0.1356885880
2995.24434	0.1355554461
2993.81463	0.1354317367
2992.38492	0.1353197098
2990.95520	0.1352301687
2989.52549	0.1351850033
2988.09578	0.1352113038
2986.66607	0.1353266686
2985.23636	0.1355268359
2983.80665	0.1357842684
2982.37694	0.1360612959
2980.94723	0.1363275647
2979.51752	0.1365718246
2978.08781	0.1367999762
2976.65810	0.1370255947
2975.22838	0.1372596622
2973.79867	0.1375056356
2972.36896	0.1377594471
2970.93925	0.1380129158
2969.50954	0.1382561624
2968.07983	0.1384785473
2966.65012	0.1386668831
2965.22041	0.1388034523
2963.79070	0.1388645619
2962.36099	0.1388277560
2960.93128	0.1386793852
2959.50157	0.1384214461
2958.07185	0.1380687654
2956.64214	0.1376399845
2955.21243	0.1371499002
2953.78272	0.1366140544
2952.35301	0.1360565871
2950.92330	0.1355139315
2949.49359	0.1350250244
2948.06388	0.1346167177
2946.63417	0.1342955232
2945.20446	0.1340539157
2943.77475	0.1338819861
2942.34503	0.1337741464
2940.91532	0.1337257177
2939.48561	0.1337287128
2938.05590	0.1337734759
2936.62619	0.1338524222
2935.19648	0.1339593232
2933.76677	0.1340770423
2932.33706	0.1341700405
2930.90735	0.1341897100
2929.47764	0.1340949535
2928.04793	0.1338727921
2926.61821	0.1335426867
2925.18850	0.1331422031
2923.75879	0.1327052265
2922.32908	0.1322468817
2920.89937	0.1317595094
2919.46966	0.1312180907
2918.03995	0.1305922121
2916.61024	0.1298599243
2915.18053	0.1290198714
2913.75082	0.1280958503
2912.32111	0.1271310449
2910.89139	0.1261740476
2909.46168	0.1252650917
2908.03197	0.1244274303
2906.60226	0.1236671507
2905.17255	0.1229799017
2903.74284	0.1223591939
2902.31313	0.1218028665
2900.88342	0.1213100553
2899.45371	0.1208753139
2898.02400	0.1204815134
2896.59429	0.1201042533
2895.16457	0.1197222099
2893.73486	0.1193283647
2892.30515	0.1189325675
2890.87544	0.1185553893
2889.44573	0.1182189509
2888.01602	0.1179418266
2886.58631	0.1177354753
2885.15660	0.1176028028
2883.72689	0.1175366268
2882.29718	0.1175214946
2880.86747	0.1175385639
2879.43775	0.1175680831
2878.00804	0.1175878346
2876.57833	0.1175693721
2875.14862	0.1174783409
2873.71891	0.1172851995
2872.28920	0.1169759035
2870.85949	0.1165601313
2869.42978	0.1160675809
2868.00007	0.1155408323
2866.57036	0.1150230244
2865.14065	0.1145479158
2863.71093	0.1141304895
2862.28122	0.1137652621
2860.85151	0.1134334803
2859.42180	0.1131157652
2857.99209	0.1128024682
2856.56238	0.1124914810
2855.13267	0.1121769249
2853.70296	0.1118371189
2852.27325	0.1114344597
2850.84354	0.1109288707
2849.41383	0.1102994829
2847.98411	0.1095613539
2846.55440	0.1087654158
2845.12469	0.1079824120
2843.69498	0.1072742194
2842.26527	0.1066712141
2840.83556	0.1061668023
2839.40585	0.1057302430
2837.97614	0.1053280309
2836.54643	0.1049367413
2835.11672	0.1045454368
2833.68701	0.1041521505
2832.25729	0.1037621126
2830.82758	0.1033890471
2829.39787	0.1030517071
2827.96816	0.1027645394
2826.53845	0.1025284380
2825.10874	0.1023300365
2823.67903	0.1021482050
2822.24932	0.1019643843
2820.81961	0.1017668992
2819.38990	0.1015517786
2817.96019	0.1013230011
2816.53047	0.1010926440
2815.10076	0.1008752137
2813.67105	0.1006781831
2812.24134	0.1004935205
2810.81163	0.1003003567
2809.38192	0.1000786871
2807.95221	0.0998248532
2806.52250	0.0995567739
2805.09279	0.0993044451
2803.66308	0.0990926549
2802.23337	0.0989273489
2800.80366	0.0987926871
2799.37394	0.0986605063
2797.94423	0.0985060856
2796.51452	0.0983207524
2795.08481	0.0981134921
2793.65510	0.0978997797
2792.22539	0.0976897106
2790.79568	0.0974808112
2789.36597	0.0972631052
2787.93626	0.0970276743
2786.50655	0.0967723504
2785.07684	0.0965035632
2783.64712	0.0962342322
2782.21741	0.0959826633
2780.78770	0.0957668349
2779.35799	0.0955952778
2777.92828	0.0954580680
2776.49857	0.0953303799
2775.06886	0.0951854140
2773.63915	0.0950099677
2772.20944	0.0948089212
2770.77973	0.0945980847
2769.35002	0.0943921432
2767.92030	0.0941982642
2766.49059	0.0940159112
2765.06088	0.0938396752
2763.63117	0.0936610773
2762.20146	0.0934720486
2760.77175	0.0932693705
2759.34204	0.0930579677
2757.91233	0.0928489044
2756.48262	0.0926519334
2755.05291	0.0924701691
2753.62320	0.0922993273
2752.19348	0.0921315327
2750.76377	0.0919593945
2749.33406	0.0917775631
2747.90435	0.0915853605
2746.47464	0.0913869143
2745.04493	0.0911915898
2743.61522	0.0910083279
2742.18551	0.0908395946
2740.75580	0.0906779096
2739.32609	0.0905100107
2737.89638	0.0903250575
2736.46666	0.0901226327
2735.03695	0.0899126902
2733.60724	0.0897097886
2732.17753	0.0895248875
2730.74782	0.0893591791
2729.31811	0.0892045349
2727.88840	0.0890486091
2726.45869	0.0888821632
2725.02898	0.0887027234
2723.59927	0.0885137841
2722.16956	0.0883198082
2720.73984	0.0881230384
2719.31013	0.0879220515
2717.88042	0.0877155140
2716.45071	0.0875045136
2715.02100	0.0872924477
2713.59129	0.0870829821
2712.16158	0.0868781134
2710.73187	0.0866786391
2709.30216	0.0864855200
2707.87245	0.0863010734
2706.44274	0.0861284509
2705.01302	0.0859693959
2703.58331	0.0858248770
2702.15360	0.0856954455
2700.72389	0.0855790153
2699.29418	0.0854702964
2697.86447	0.0853587463
2696.43476	0.0852318183
2695.00505	0.0850825384
2693.57534	0.0849148035
2692.14563	0.0847419426
2690.71592	0.0845787674
2689.28620	0.0844331384
2687.85649	0.0843041912
2686.42678	0.0841857716
2684.99707	0.0840721279
2683.56736	0.0839601830
2682.13765	0.0838473514
2680.70794	0.0837297142
2679.27823	0.0836021304
2677.84852	0.0834602490
2676.41881	0.0833032057
2674.98910	0.0831338018
2673.55938	0.0829576701
2672.12967	0.0827812925
2670.69996	0.0826095864
2669.27025	0.0824449956
2667.84054	0.0822879076
2666.41083	0.0821368843
2664.98112	0.0819902942
2663.55141	0.0818458423
2662.12170	0.0817020684
2660.69199	0.0815604627
2659.26228	0.0814247057
2657.83256	0.0813002065
2656.40285	0.0811888427
2654.97314	0.0810867772
2653.54343	0.0809861049
2652.11372	0.0808799714
2650.68401	0.0807664692
2649.25430	0.0806494206
2647.82459	0.0805349201
2646.39488	0.0804279000
2644.96517	0.0803304687
2643.53546	0.0802411214
2642.10575	0.0801569596
2640.67603	0.0800742805
2639.24632	0.0799906775
2637.81661	0.0799049810
2636.38690	0.0798154399
2634.95719	0.0797187015
2633.52748	0.0796118155
2632.09777	0.0794950798
2630.66806	0.0793733969
2629.23835	0.0792548507
2627.80864	0.0791446939
2626.37893	0.0790440738
2624.94921	0.0789512321
2623.51950	0.0788656175
2622.08979	0.0787877738
2620.66008	0.0787167400
2619.23037	0.0786478892
2617.80066	0.0785745829
2616.37095	0.0784934759
2614.94124	0.0784071088
2613.51153	0.0783223435
2612.08182	0.0782463029
2610.65211	0.0781833529
2609.22239	0.0781347305
2607.79268	0.0780987516
2606.36297	0.0780700892
2604.93326	0.0780392587
2603.50355	0.0779955164
2602.07384	0.0779327899
2600.64413	0.0778539404
2599.21442	0.0777687877
2597.78471	0.0776864663
2596.35500	0.0776104406
2594.92529	0.0775379315
2593.49557	0.0774674416
2592.06586	0.0774034932
2590.63615	0.0773548260
2589.20644	0.0773264617
2587.77673	0.0773139969
2586.34702	0.0773052126
2584.91731	0.0772887617
2583.48760	0.0772626624
2582.05789	0.0772340223
2580.62818	0.0772125944
2579.19847	0.0772019252
2577.76875	0.0771959573
2576.33904	0.0771840215
2574.90933	0.0771567822
2573.47962	0.0771127567
2572.04991	0.0770580098
2570.62020	0.0770044997
2569.19049	0.0769651607
2567.76078	0.0769499540
2566.33107	0.0769623742
2564.90136	0.0769990608
2563.47165	0.0770506784
2562.04193	0.0771058276
2560.61222	0.0771538094
2559.18251	0.0771868676
2557.75280	0.0772013962
2556.32309	0.0771986470
2554.89338	0.0771843269
2553.46367	0.0771680027
2552.03396	0.0771589801
2550.60425	0.0771642923
2549.17454	0.0771863088
2547.74483	0.0772227347
2546.31511	0.0772689655
2544.88540	0.0773189813
2543.45569	0.0773673579
2542.02598	0.0774099827
2540.59627	0.0774457827
2539.16656	0.0774769410
2537.73685	0.0775090232
2536.30714	0.0775477663
2534.87743	0.0775951818
2533.44772	0.0776485130
2532.01801	0.0777010098
2530.58829	0.0777467713
2529.15858	0.0777854100
2527.72887	0.0778233111
2526.29916	0.0778704733
2524.86945	0.0779338777
2523.43974	0.0780121237
2522.01003	0.0780957416
2520.58032	0.0781714469
2519.15061	0.0782297775
2517.72090	0.0782698542
2516.29119	0.0782970414
2514.86147	0.0783196464
2513.43176	0.0783435181
2512.00205	0.0783712342
2510.57234	0.0784040689
2509.14263	0.0784431696
2507.71292	0.0784898102
2506.28321	0.0785434693
2504.85350	0.0786025301
2503.42379	0.0786647052
2501.99408	0.0787289292
2500.56437	0.0787945986
2499.13465	0.0788602754
2497.70494	0.0789232254
2496.27523	0.0789817870
2494.84552	0.0790374875
2493.41581	0.0790951252
2491.98610	0.0791587979
2490.55639	0.0792268589
2489.12668	0.0792909265
2487.69697	0.0793414488
2486.26726	0.0793747604
2484.83755	0.0793976635
2483.40784	0.0794245154
2481.97812	0.0794681907
2480.54841	0.0795323774
2479.11870	0.0796106383
2477.68899	0.0796910822
2476.25928	0.0797648579
2474.82957	0.0798281655
2473.39986	0.0798830464
2471.97015	0.0799321085
2470.54044	0.0799771994
2469.11073	0.0800191239
2467.68102	0.0800577179
2466.25130	0.0800930783
2464.82159	0.0801262632
2463.39188	0.0801606625
2461.96217	0.0802011713
2460.53246	0.0802506506
2459.10275	0.0803081989
2457.67304	0.0803693384
2456.24333	0.0804297999
2454.81362	0.0804890841
2453.38391	0.0805481672
2451.95420	0.0806055069
2450.52448	0.0806552768
2449.09477	0.0806922466
2447.66506	0.0807167813
2446.23535	0.0807362348
2444.80564	0.0807589293
2443.37593	0.0807875767
2441.94622	0.0808172598
2440.51651	0.0808404312
2439.08680	0.0808533430
2437.65709	0.0808588937
2436.22738	0.0808643475
2434.79766	0.0808768868
2433.36795	0.0808985233
2431.93824	0.0809253752
2430.50853	0.0809504539
2429.07882	0.0809685737
2427.64911	0.0809802711
2426.21940	0.0809900388
2424.78969	0.0810017660
2423.35998	0.0810143054
2421.93027	0.0810214505
2420.50056	0.0810183585
2419.07084	0.0810069442
2417.64113	0.0809963346
2416.21142	0.0809984580
2414.78171	0.0810197294
2413.35200	0.0810576379
2411.92229	0.0811014697
2410.49258	0.0811383501
2409.06287	0.0811605081
2407.63316	0.0811674967
2406.20345	0.0811645985
2404.77374	0.0811586007
2403.34402	0.0811533928
2401.91431	0.0811495557
2400.48460	0.0811452791
2399.05489	0.0811372250
2397.62518	0.0811220333
2396.19547	0.0810987875
2394.76576	0.0810721740
2393.33605	0.0810518041
2391.90634	0.0810460001
2390.47663	0.0810551718
2389.04692	0.0810703635
2387.61720	0.0810783207
2386.18749	0.0810696781
2384.75778	0.0810422897
2383.32807	0.0809983015
2381.89836	0.0809379816
2380.46865	0.0808571726
2379.03894	0.0807494819
2377.60923	0.0806102753
2376.17952	0.0804400817
2374.74981	0.0802431405
2373.32010	0.0800241679
2371.89038	0.0797839612
2370.46067	0.0795181394
2369.03096	0.0792182535
2367.60125	0.0788782164
2366.17154	0.0785060003
2364.74183	0.0781324059
2363.31212	0.0778082311
2361.88241	0.0775816590
2360.45270	0.0774680302
2359.02299	0.0774408951
2357.59328	0.0774616525
2356.16356	0.0775234178
2354.73385	0.0776553825
2353.30414	0.0778813809
2351.87443	0.0781837851
2350.44472	0.0785093531
2349.01501	0.0787919313
2347.58530	0.0789693668
2346.15559	0.0789948553
2344.72588	0.0788571686
2343.29617	0.0786044523
2341.86646	0.0783377513
2340.43674	0.0781511515
2339.00703	0.0780725703
2337.57732	0.0780653805
2336.14761	0.0780756325
2334.71790	0.0780716985
2333.28819	0.0780545995
2331.85848	0.0780428872
2330.42877	0.0780502632
2328.99906	0.0780744553
2327.56935	0.0781041086
2326.13964	0.0781327114
2324.70993	0.0781666115
2323.28021	0.0782194585
2321.85050	0.0783029944
2320.42079	0.0784170926
2318.99108	0.0785487145
2317.56137	0.0786780789
2316.13166	0.0787867457
2314.70195	0.0788653642
2313.27224	0.0789158419
2311.84253	0.0789482519
2310.41282	0.0789719447
2308.98311	0.0789897963
2307.55339	0.0789983645
2306.12368	0.0789936110
2304.69397	0.0789765343
2303.26426	0.0789527819
2301.83455	0.0789284781
2300.40484	0.0789064690
2298.97513	0.0788864717
2297.54542	0.0788685903
2296.11571	0.0788558051
2294.68600	0.0788530409
2293.25629	0.0788630396
2291.82657	0.0788820982
2290.39686	0.0789001659
2288.96715	0.0789054409
2287.53744	0.0788909420
2286.10773	0.0788576379
2284.67802	0.0788122267
2283.24831	0.0787633508
2281.81860	0.0787178203
2280.38889	0.0786790401
2278.95918	0.0786466748
2277.52947	0.0786161795
2276.09975	0.0785801336
2274.67004	0.0785325542
2273.24033	0.0784735605
2271.81062	0.0784112960
2270.38091	0.0783566311
2268.95120	0.0783165097
2267.52149	0.0782898813
2266.09178	0.0782700405
2264.66207	0.0782486871
2263.23236	0.0782207251
2261.80265	0.0781836286
2260.37293	0.0781378597
2258.94322	0.0780872256
2257.51351	0.0780400336
2256.08380	0.0780057758
2254.65409	0.0779891387
2253.22438	0.0779846758
2251.79467	0.0779779553
2250.36496	0.0779542550
2248.93525	0.0779081956
2247.50554	0.0778486133
2246.07583	0.0777927190
2244.64611	0.0777555928
2243.21640	0.0777413249
2241.78669	0.0777419731
2240.35698	0.0777443275
2238.92727	0.0777372941
2237.49756	0.0777157173
2236.06785	0.0776804611
2234.63814	0.0776358247
2233.20843	0.0775883719
2231.77872	0.0775438100
2230.34901	0.0775049999
2228.91929	0.0774701610
2227.48958	0.0774342418
2226.05987	0.0773924142
2224.63016	0.0773437545
2223.20045	0.0772915483
2221.77074	0.0772417858
2220.34103	0.0771997273
2218.91132	0.0771691799
2217.48161	0.0771503225
2216.05190	0.0771390945
2214.62219	0.0771280304
2213.19247	0.0771094188
2211.76276	0.0770790577
2210.33305	0.0770381019
2208.90334	0.0769906566
2207.47363	0.0769405887
2206.04392	0.0768897533
2204.61421	0.0768394247
2203.18450	0.0767920911
2201.75479	0.0767509788
2200.32508	0.0767171830
2198.89537	0.0766884908
2197.46565	0.0766591206
2196.03594	0.0766238868
2194.60623	0.0765809938
2193.17652	0.0765328854
2191.74681	0.0764828101
2190.31710	0.0764317885
2188.88739	0.0763781741
2187.45768	0.0763199404
2186.02797	0.0762578547
2184.59826	0.0761967972
2183.16855	0.0761426911
2181.73883	0.0760993212
2180.30912	0.0760654584
2178.87941	0.0760345235
2177.44970	0.0759968683
2176.01999	0.0759435296
2174.59028	0.0758711100
2173.16057	0.0757842734
2171.73086	0.0756961033
2170.30115	0.0756232366
2168.87144	0.0755779445
2167.44173	0.0755619556
2166.01202	0.0755648836
2164.58230	0.0755692571
2163.15259	0.0755595863
2161.72288	0.0755282268
2160.29317	0.0754765123
2158.86346	0.0754114985
2157.43375	0.0753406137
2156.00404	0.0752693415
2154.57433	0.0752013773
2153.14462	0.0751398206
2151.71491	0.0750872642
2150.28520	0.0750442147
2148.85548	0.0750086457
2147.42577	0.0749753267
2145.99606	0.0749380440
2144.56635	0.0748911053
2143.13664	0.0748310685
2141.70693	0.0747592673
2140.27722	0.0746823996
2138.84751	0.0746099427
2137.41780	0.0745498240
2135.98809	0.0745037273
2134.55838	0.0744677782
2133.12866	0.0744347125
2131.69895	0.0743987635
2130.26924	0.0743565857
2128.83953	0.0743062422
2127.40982	0.0742469281
2125.98011	0.0741808712
2124.55040	0.0741144270
2123.12069	0.0740564317
2121.69098	0.0740132406
2120.26127	0.0739837140
2118.83156	0.0739595294
2117.40184	0.0739294514
2115.97213	0.0738866702
2114.54242	0.0738326013
2113.11271	0.0737762451
2111.68300	0.0737285092
2110.25329	0.0736964867
2108.82358	0.0736793056
2107.39387	0.0736691579
2105.96416	0.0736552924
2104.53445	0.0736301765
2103.10474	0.0735928491
2101.67502	0.0735486671
2100.24531	0.0735048205
2098.81560	0.0734659433
2097.38589	0.0734317005
2095.95618	0.0733979866
2094.52647	0.0733593628
2093.09676	0.0733128116
2091.66705	0.0732588470
2090.23734	0.0732009038
2088.80763	0.0731438547
2087.37792	0.0730918124
2085.94820	0.0730455965
2084.51849	0.0730037317
2083.08878	0.0729632750
2081.65907	0.0729226097
2080.22936	0.0728814900
2078.79965	0.0728406236
2077.36994	0.0727999732
2075.94023	0.0727576986
2074.51052	0.0727109686
2073.08081	0.0726578087
2071.65110	0.0725986660
2070.22138	0.0725363120
2068.79167	0.0724753216
2067.36196	0.0724187046
2065.93225	0.0723666549
2064.50254	0.0723171532
2063.07283	0.0722682923
2061.64312	0.0722211823
2060.21341	0.0721799508
2058.78370	0.0721491352
2057.35399	0.0721291825
2055.92428	0.0721148476
2054.49456	0.0720975474
2053.06485	0.0720698908
2051.63514	0.0720297396
2050.20543	0.0719798133
2048.77572	0.0719241500
2047.34601	0.0718645230
2045.91630	0.0717995614
2044.48659	0.0717282295
2043.05688	0.0716535747
2041.62717	0.0715833008
2040.19746	0.0715255588
2038.76774	0.0714832246
2037.33803	0.0714516118
2035.90832	0.0714223757
2034.47861	0.0713888779
2033.04890	0.0713489428
2031.61919	0.0713046417
2030.18948	0.0712582767
2028.75977	0.0712124705
2027.33006	0.0711699575
2025.90035	0.0711343661
2024.47064	0.0711078718
2023.04092	0.0710885376
2021.61121	0.0710699111
2020.18150	0.0710443929
2018.75179	0.0710080862
2017.32208	0.0709633976
2015.89237	0.0709181353
2014.46266	0.0708793700
2013.03295	0.0708482862
2011.60324	0.0708205849
2010.17353	0.0707917362
2008.74382	0.0707633644
2007.31411	0.0707442388
2005.88439	0.0707433522
2004.45468	0.0707620308
2003.02497	0.0707907006
2001.59526	0.0708144605
2000.16555	0.0708213523
1998.73584	0.0708061755
1997.30613	0.0707706809
1995.87642	0.0707192570
1994.44671	0.0706586689
1993.01700	0.0705992132
1991.58729	0.0705533177
1990.15757	0.0705310926
1988.72786	0.0705351979
1987.29815	0.0705597177
1985.86844	0.0705940947
1984.43873	0.0706282407
1983.00902	0.0706555322
1981.57931	0.0706731007
1980.14960	0.0706797466
1978.71989	0.0706753582
1977.29018	0.0706613734
1975.86047	0.0706421584
1974.43075	0.0706240982
1973.00104	0.0706119463
1971.57133	0.0706064031
1970.14162	0.0706054270
1968.71191	0.0706087798
1967.28220	0.0706198588
1965.85249	0.0706418529
1964.42278	0.0706723109
1962.99307	0.0707023740
1961.56336	0.0707226992
1960.13365	0.0707307085
1958.70393	0.0707319602
1957.27422	0.0707354024
1955.84451	0.0707473457
1954.41480	0.0707690641
1952.98509	0.0707971230
1951.55538	0.0708260760
1950.12567	0.0708496273
1948.69596	0.0708625466
1947.26625	0.0708627626
1945.83654	0.0708523989
1944.40683	0.0708395392
1942.97711	0.0708357021
1941.54740	0.0708524659
1940.11769	0.0708942115
1938.68798	0.0709547102
1937.25827	0.0710200071
1935.82856	0.0710782036
1934.39885	0.0711268410
1932.96914	0.0711722746
1931.53943	0.0712203681
1930.10972	0.0712685287
1928.68001	0.0713067204
1927.25029	0.0713266730
1925.82058	0.0713289902
1924.39087	0.0713215470
1922.96116	0.0713135526
1921.53145	0.0713123903
1920.10174	0.0713247508
1918.67203	0.0713568106
1917.24232	0.0714102685
1915.81261	0.0714787990
1914.38290	0.0715502799
1912.95319	0.0716153830
1911.52347	0.0716729611
1910.09376	0.0717296898
1908.66405	0.0717945844
1907.23434	0.0718719140
1905.80463	0.0719576925
1904.37492	0.0720405877
1902.94521	0.0721092522
1901.51550	0.0721584260
1900.08579	0.0721926615
1898.65608	0.0722223446
1897.22637	0.0722568631
1895.79665	0.0722984076
1894.36694	0.0723437816
1892.93723	0.0723878518
1891.50752	0.0724282190
1890.07781	0.0724671260
1888.64810	0.0725112632
1887.21839	0.0725702122
1885.78868	0.0726506189
1884.35897	0.0727506578
1882.92926	0.0728590861
1881.49955	0.0729609802
1880.06983	0.0730462670
1878.64012	0.0731140524
1877.21041	0.0731691644
1875.78070	0.0732157603
1874.35099	0.0732521936
1872.92128	0.0732717738
1871.49157	0.0732684657
1870.06186	0.0732464641
1868.63215	0.0732281730
1867.20244	0.0732467696
1865.77273	0.0733235031
1864.34301	0.0734521151
1862.91330	0.0736057907
1861.48359	0.0737568513
1860.05388	0.0738913044
1858.62417	0.0740100220
1857.19446	0.0741193369
1855.76475	0.0742232502
1854.33504	0.0743218735
1852.90533	0.0744149610
1851.47562	0.0744997337
1850.04591	0.0745669752
1848.61619	0.0746051222
1847.18648	0.0746131763
1845.75677	0.0746132955
1844.32706	0.0746444985
1842.89735	0.0747344196
1841.46764	0.0748784021
1840.03793	0.0750493854
1838.60822	0.0752209201
1837.17851	0.0753783062
1835.74880	0.0755159408
1834.31909	0.0756316185
1832.88938	0.0757254735
1831.45966	0.0758002698
1830.02995	0.0758642927
1828.60024	0.0759326145
1827.17053	0.0760242268
1825.74082	0.0761531442
1824.31111	0.0763180256
1822.88140	0.0765020773
1821.45169	0.0766837075
1820.02198	0.0768494979
1818.59227	0.0769973323
1817.16256	0.0771292001
1815.73284	0.0772454366
1814.30313	0.0773466602
1812.87342	0.0774409547
1811.44371	0.0775446147
1810.01400	0.0776715428
1808.58429	0.0778225064
1807.15458	0.0779859424
1805.72487	0.0781470612
1804.29516	0.0782958940
1802.86545	0.0784297734
1801.43574	0.0785562471
1800.00602	0.0786922574
1798.57631	0.0788534135
1797.14660	0.0790391341
1795.71689	0.0792295933
1794.28718	0.0794007704
1792.85747	0.0795483589
1791.42776	0.0796947852
1789.99805	0.0798682943
1788.56834	0.0800767019
1787.13863	0.0803065151
1785.70892	0.0805398449
1784.27920	0.0807652548
1782.84949	0.0809784606
1781.41978	0.0811812878
1779.99007	0.0813813061
1778.56036	0.0815879181
1777.13065	0.0818008408
1775.70094	0.0820044577
1774.27123	0.0821771696
1772.84152	0.0823187903
1771.41181	0.0824662745
1769.98210	0.0826701745
1768.55238	0.0829500258
1767.12267	0.0832857415
1765.69296	0.0836449713
1764.26325	0.0840050653
1762.83354	0.0843555555
1761.40383	0.0846986175
1759.97412	0.0850501359
1758.54441	0.0854329541
1757.11470	0.0858603343
1755.68499	0.0863242224
1754.25528	0.0868051127
1752.82556	0.0872943476
1751.39585	0.0878058448
1749.96614	0.0883626714
1748.53643	0.0889686644
1747.10672	0.0896026418
1745.67701	0.0902419165
1744.24730	0.0908791274
1742.81759	0.0915129036
1741.38788	0.0921354741
1739.95817	0.0927361771
1738.52846	0.0933157355
1737.09874	0.0938919857
1735.66903	0.0944915265
1734.23932	0.0951407850
1732.80961	0.0958603024
1731.37990	0.0966602117
1729.95019	0.0975357294
1728.52048	0.0984723493
1727.09077	0.0994537175
1725.66106	0.1004668027
1724.23135	0.1015029550
1722.80164	0.1025610194
1721.37192	0.1036568731
1719.94221	0.1048385948
1718.51250	0.1061777100
1717.08279	0.1077025235
1715.65308	0.1093226895
1714.22337	0.1108881384
1712.79366	0.1123286113
1711.36395	0.1136827245
1709.93424	0.1150305420
1708.50453	0.1164394915
1707.07482	0.1179504469
1705.64510	0.1195966303
1704.21539	0.1214350760
1702.78568	0.1235660836
1701.35597	0.1261120886
1699.92626	0.1291359067
1698.49655	0.1325235963
1697.06684	0.1359779239
1695.63713	0.1392043084
1694.20742	0.1420801580
1692.77771	0.1446383446
1691.34800	0.1469770670
1689.91828	0.1492170990
1688.48857	0.1515098363
1687.05886	0.1540460289
1685.62915	0.1569839716
1684.19944	0.1602624357
1682.76973	0.1635357738
1681.34002	0.1664834917
1679.91031	0.1690901965
1678.48060	0.1715461463
1677.05089	0.1740409583
1675.62118	0.1766628325
1674.19147	0.1794071645
1672.76175	0.1822477579
1671.33204	0.1851835549
1669.90233	0.1881989092
1668.47262	0.1912164539
1667.04291	0.1941483021
1665.61320	0.1969816387
1664.18349	0.1997612417
1662.75378	0.2024789304
1661.32407	0.2050025761
1659.89436	0.2071407288
1658.46465	0.2087515444
1657.03493	0.2097454816
1655.60522	0.2100054324
1654.17551	0.2093957365
1652.74580	0.2079691440
1651.31609	0.2060853839
1649.88638	0.2040918171
1648.45667	0.2020463943
1647.02696	0.1998959482
1645.59725	0.1977306306
1644.16754	0.1957586408
1642.73783	0.1940862238
1641.30811	0.1926039606
1639.87840	0.1910509169
1638.44869	0.1891410351
1637.01898	0.1867321730
1635.58927	0.1839984357
1634.15956	0.1813312918
1632.72985	0.1789521724
1631.30014	0.1767502427
1629.87043	0.1744462699
1628.44072	0.1717647314
1627.01101	0.1685287058
1625.58129	0.1647430509
1624.15158	0.1606212407
1622.72187	0.1564497799
1621.29216	0.1523720771
1619.86245	0.1483175904
1618.43274	0.1441460401
1617.00303	0.1398836970
1615.57332	0.1358135343
1614.14361	0.1322661191
1612.71390	0.1293381602
1611.28419	0.1268724054
1609.85447	0.1246479079
1608.42476	0.1225454360
1606.99505	0.1205810755
1605.56534	0.1188266128
1604.13563	0.1173185036
1602.70592	0.1160392091
1601.27621	0.1149556562
1599.84650	0.1140456945
1598.41679	0.1132889092
1596.98708	0.1126562580
1595.55737	0.1121235713
1594.12765	0.1116911247
1592.69794	0.1113779545
1591.26823	0.1111972481
1589.83852	0.1111449152
1588.40881	0.1112126634
1586.97910	0.1114002019
1585.54939	0.1117078364
1584.11968	0.1121197194
1582.68997	0.1126071364
1581.26026	0.1131517664
1579.83055	0.1137635112
1578.40083	0.1144728437
1576.97112	0.1152997389
1575.54141	0.1162242815
1574.11170	0.1172018573
1572.68199	0.1182085499
1571.25228	0.1192578450
1569.82257	0.1203704700
1568.39286	0.1215359792
1566.96315	0.1227088198
1565.53344	0.1238496155
1564.10373	0.1249705255
1562.67401	0.1261543185
1561.24430	0.1275508404
1559.81459	0.1293064356
1558.38488	0.1313651800
1556.95517	0.1333850324
1555.52546	0.1350685209
1554.09575	0.1363955885
1552.66604	0.1374600828
1551.23633	0.1383077353
1549.80662	0.1389174163
1548.37691	0.1392493248
1546.94719	0.1392762959
1545.51748	0.1389642209
1544.08777	0.1382218301
1542.65806	0.1369235367
1541.22835	0.1351104826
1539.79864	0.1331592947
1538.36893	0.1314790696
1536.93922	0.1301263869
1535.50951	0.1289074570
1534.07980	0.1276443899
1532.65009	0.1262856573
1531.22037	0.1248770654
1529.79066	0.1234702766
1528.36095	0.1220610365
1526.93124	0.1205998361
1525.50153	0.1190445051
1524.07182	0.1174019426
1522.64211	0.1157353595
1521.21240	0.1141334176
1519.78269	0.1126590446
1518.35298	0.1113151014
1516.92327	0.1100513116
1515.49356	0.1088037863
1514.06384	0.1075198203
1512.63413	0.1061398014
1511.20442	0.1045502424
1509.77471	0.1025715098
1508.34500	0.1001006216
1506.91529	0.0974128768
1505.48558	0.0951216370
1504.05587	0.0935646072
1502.62616	0.0925707147
1501.19645	0.0918026343
1499.76674	0.0910209343
1498.33702	0.0901480541
1496.90731	0.0892453864
1495.47760	0.0884180069
1494.04789	0.0877039805
1492.61818	0.0870587528
1491.18847	0.0864243060
1489.75876	0.0858017281
1488.32905	0.0852655843
1486.89934	0.0849035680
1485.46963	0.0847410262
1484.03992	0.0847375318
1482.61020	0.0848350227
1481.18049	0.0849951357
1479.75078	0.0852067471
1478.32107	0.0854774565
1476.89136	0.0858255997
1475.46165	0.0862756893
1474.03194	0.0868417174
1472.60223	0.0874939114
1471.17252	0.0881503150
1469.74281	0.0887244791
1468.31310	0.0891719535
1466.88338	0.0894944742
1465.45367	0.0897230878
1464.02396	0.0899000466
1462.59425	0.0900584161
1461.16454	0.0902108476
1459.73483	0.0903555900
1458.30512	0.0904880762
1456.87541	0.0906032473
1455.44570	0.0906888843
1454.01599	0.0907216147
1452.58628	0.0906750709
1451.15656	0.0905281231
1449.72685	0.0902718082
1448.29714	0.0899222419
1446.86743	0.0895231739
1445.43772	0.0891245902
1444.00801	0.0887487382
1442.57830	0.0883777067
1441.14859	0.0879697502
1439.71888	0.0874883011
1438.28917	0.0869335085
1436.85946	0.0863624960
1435.42974	0.0858704597
1434.00003	0.0855307207
1432.57032	0.0853578299
1431.14061	0.0853265449
1429.71090	0.0854059830
1428.28119	0.0855757967
1426.85148	0.0858233646
1425.42177	0.0861365944
1423.99206	0.0865010023
1422.56235	0.0868998319
1421.13264	0.0873172581
1419.70292	0.0877409205
1418.27321	0.0881638229
1416.84350	0.0885837078
1415.41379	0.0890013278
1413.98408	0.0894202739
1412.55437	0.0898446217
1411.12466	0.0902756602
1409.69495	0.0907073542
1408.26524	0.0911266059
1406.83553	0.0915158093
1405.40582	0.0918570980
1403.97610	0.0921318531
1402.54639	0.0923212320
1401.11668	0.0924073309
1399.68697	0.0923764631
1398.25726	0.0922246724
1396.82755	0.0919656903
1395.39784	0.0916343629
1393.96813	0.0912711099
1392.53842	0.0908941627
1391.10871	0.0904879496
1389.67900	0.0900172666
1388.24928	0.0894584358
1386.81957	0.0888265744
1385.38986	0.0881752074
1383.96015	0.0875628144
1382.53044	0.0870176628
1381.10073	0.0865330324
1379.67102	0.0860876068
1378.24131	0.0856661201
1376.81160	0.0852677897
1375.38189	0.0849058926
1373.95218	0.0846006274
1372.52246	0.0843674988
1371.09275	0.0842045918
1369.66304	0.0840874612
1368.23333	0.0839778334
1366.80362	0.0838414803
1365.37391	0.0836676583
1363.94420	0.0834803581
1362.51449	0.0833286420
1361.08478	0.0832578018
1359.65507	0.0832794383
1358.22536	0.0833682790
1356.79565	0.0834841579
1355.36593	0.0835943148
1353.93622	0.0836854577
1352.50651	0.0837615430
1351.07680	0.0838334709
1349.64709	0.0839069784
1348.21738	0.0839783028
1346.78767	0.0840385184
1345.35796	0.0840805471
1343.92825	0.0841050223
1342.49854	0.0841195360
1341.06883	0.0841381997
1339.63911	0.0841789171
1338.20940	0.0842569470
1336.77969	0.0843773410
1335.34998	0.0845333561
1333.92027	0.0847126767
1332.49056	0.0849064589
1331.06085	0.0851110965
1329.63114	0.0853260085
1328.20143	0.0855496302
1326.77172	0.0857782289
1325.34201	0.0860094354
1323.91229	0.0862447172
1322.48258	0.0864880159
1321.05287	0.0867429301
1319.62316	0.0870097280
1318.19345	0.0872854218
1316.76374	0.0875643939
1315.33403	0.0878395885
1313.90432	0.0881018937
1312.47461	0.0883416981
1311.04490	0.0885512680
1309.61519	0.0887295231
1308.18547	0.0888844803
1306.75576	0.0890313536
1305.32605	0.0891859084
1303.89634	0.0893554911
1302.46663	0.0895342380
1301.03692	0.0897068903
1299.60721	0.0898595527
1298.17750	0.0899893641
1296.74779	0.0901052728
1295.31808	0.0902218446
1293.88837	0.0903494433
1292.45865	0.0904887095
1291.02894	0.0906316936
1289.59923	0.0907676443
1288.16952	0.0908905566
1286.73981	0.0910028964
1285.31010	0.0911125913
1283.88039	0.0912259221
1282.45068	0.0913404599
1281.02097	0.0914458930
1279.59126	0.0915342495
1278.16155	0.0916091725
1276.73183	0.0916884542
1275.30212	0.0917958841
1273.87241	0.0919511393
1272.44270	0.0921651050
1271.01299	0.0924425945
1269.58328	0.0927863717
1268.15357	0.0931976289
1266.72386	0.0936726704
1265.29415	0.0942027345
1263.86444	0.0947768763
1262.43473	0.0953882858
1261.00501	0.0960359052
1259.57530	0.0967203677
1258.14559	0.0974346399
1256.71588	0.0981591195
1255.28617	0.0988625661
1253.85646	0.0995085314
1252.42675	0.1000630409
1250.99704	0.1004991606
1249.56733	0.1007991657
1248.13762	0.1009557098
1246.70791	0.1009738669
1245.27819	0.1008698195
1243.84848	0.1006667316
1242.41877	0.1003879905
1240.98906	0.1000502333
1239.55935	0.0996610969
1238.12964	0.0992222354
1236.69993	0.0987358540
1235.27022	0.0982089639
1233.84051	0.0976556465
1232.41080	0.0970934182
1230.98109	0.0965382829
1229.55137	0.0959993899
1228.12166	0.0954774469
1226.69195	0.0949663818
1225.26224	0.0944571644
1223.83253	0.0939409956
1222.40282	0.0934113786
1220.97311	0.0928661525
1219.54340	0.0923102126
1218.11369	0.0917562693
1216.68398	0.0912207812
1215.25427	0.0907174349
1213.82455	0.0902535766
1212.39484	0.0898292735
1210.96513	0.0894421861
1209.53542	0.0890901461
1208.10571	0.0887730643
1206.67600	0.0884938464
1205.24629	0.0882595107
1203.81658	0.0880828649
1202.38687	0.0879804343
1200.95716	0.0879670307
1199.52745	0.0880494192
1198.09774	0.0882248729
1196.66802	0.0884847417
1195.23831	0.0888203159
1193.80860	0.0892257690
1192.37889	0.0896959454
1190.94918	0.0902219340
1189.51947	0.0907894075
1188.08976	0.0913818330
1186.66005	0.0919880569
1185.23034	0.0926086828
1183.80063	0.0932576880
1182.37092	0.0939572528
1180.94120	0.0947282910
1179.51149	0.0955826938
1178.08178	0.0965182707
1176.65207	0.0975187197
1175.22236	0.0985579863
1173.79265	0.0996064246
1172.36294	0.1006388888
1170.93323	0.1016429365
1169.50352	0.1026217043
1168.07381	0.1035904884
1166.64410	0.1045665145
1165.21438	0.1055590585
1163.78467	0.1065677404
1162.35496	0.1075880975
1160.92525	0.1086198241
1159.49554	0.1096687391
1158.06583	0.1107404977
1156.63612	0.1118328944
1155.20641	0.1129345596
1153.77670	0.1140323654
1152.34699	0.1151222810
1150.91728	0.1162126139
1149.48756	0.1173179969
1148.05785	0.1184503734
1146.62814	0.1196150705
1145.19843	0.1208168119
1143.76872	0.1220666990
1142.33901	0.1233841851
1140.90930	0.1247897968
1139.47959	0.1262961030
1138.04988	0.1279028952
1136.62017	0.1296001524
1135.19046	0.1313731670
1133.76074	0.1332061142
1132.33103	0.1350841969
1130.90132	0.1369941235
1129.47161	0.1389268041
1128.04190	0.1408783644
1126.61219	0.1428478956
1125.18248	0.1448311061
1123.75277	0.1468157917
1122.32306	0.1487818062
1120.89335	0.1507079303
1119.46364	0.1525782347
1118.03392	0.1543844789
1116.60421	0.1561226845
1115.17450	0.1577908546
1113.74479	0.1593899578
1112.31508	0.1609298438
1110.88537	0.1624299437
1109.45566	0.1639082134
1108.02595	0.1653643996
1106.59624	0.1667704582
1105.16653	0.1680774093
1103.73682	0.1692340672
1102.30710	0.1702066511
1100.87739	0.1709907353
1099.44768	0.1716132015
1098.01797	0.1721247137
1096.58826	0.1725815088
1095.15855	0.1730209291
1093.72884	0.1734425128
1092.29913	0.1738097519
1090.86942	0.1740706414
1089.43971	0.1741809994
1088.01000	0.1741149724
1086.58028	0.1738592386
1085.15057	0.1734065413
1083.72086	0.1727571040
1082.29115	0.1719249487
1080.86144	0.1709362715
1079.43173	0.1698173732
1078.00202	0.1685817540
1076.57231	0.1672298312
1075.14260	0.1657596081
1073.71289	0.1641793698
1072.28318	0.1625091136
1070.85346	0.1607720852
1069.42375	0.1589842290
1067.99404	0.1571481973
1066.56433	0.1552557498
1065.13462	0.1532934308
1063.70491	0.1512482613
1062.27520	0.1491099447
1060.84549	0.1468697786
1059.41578	0.1445182413
1057.98607	0.1420467049
1056.55636	0.1394554824
1055.12664	0.1367631257
1053.69693	0.1340095848
1052.26722	0.1312477738
1050.83751	0.1285272390
1049.40780	0.1258825213
1047.97809	0.1233304366
1046.54838	0.1208758950
1045.11867	0.1185175404
1043.68896	0.1162517518
1042.25925	0.1140737310
1040.82954	0.1119819805
1039.39983	0.1099813432
1037.97011	0.1080828384
1036.54040	0.1062994748
1035.11069	0.1046405882
1033.68098	0.1031072736
1032.25127	0.1016906649
1030.82156	0.1003721058
1029.39185	0.0991260856
1027.96214	0.0979297832
1026.53243	0.0967742205
1025.10272	0.0956729352
1023.67301	0.0946599469
1022.24329	0.0937762558
1020.81358	0.0930519029
1019.38387	0.0924949870
1017.95416	0.0920944139
1016.52445	0.0918352231
1015.09474	0.0917148888
1013.66503	0.0917494223
1012.23532	0.0919648930
1010.80561	0.0923803672
1009.37590	0.0929966494
1007.94619	0.0937944427
1006.51647	0.0947436541
1005.08676	0.0958131179
1003.65705	0.0969769284
1002.22734	0.0982137024
1000.79763	0.0995013341
999.36792	0.1008094177
997.93821	0.1020948291
996.50850	0.1033034325
995.07879	0.1043783426
993.64908	0.1052700058
992.21937	0.1059420630
990.78965	0.1063722521
989.35994	0.1065503433
987.93023	0.1064754799
986.50052	0.1061562300
985.07081	0.1056091040
983.64110	0.1048573405
982.21139	0.1039283127
980.78168	0.1028501838
979.35197	0.1016479060
977.92226	0.1003405675
976.49255	0.0989431813
975.06283	0.0974721909
973.63312	0.0959500819
972.20341	0.0944026634
970.77370	0.0928524658
969.34399	0.0913141668
967.91428	0.0897982717
966.48457	0.0883205086
965.05486	0.0869074836
963.62515	0.0855911151
962.19544	0.0843988061
960.76573	0.0833442584
959.33601	0.0824253112
957.90630	0.0816271454
956.47659	0.0809288695
955.04688	0.0803126842
953.61717	0.0797720775
952.18746	0.0793132931
950.75775	0.0789469182
949.32804	0.0786769316
947.89833	0.0784939975
946.46862	0.0783815905
945.03891	0.0783242658
943.60919	0.0783091933
942.17948	0.0783203840
940.74977	0.0783326328
939.32006	0.0783159509
937.89035	0.0782471076
936.46064	0.0781206265
935.03093	0.0779494867
933.60122	0.0777558759
932.17151	0.0775597766
930.74180	0.0773706362
929.31209	0.0771870539
927.88237	0.0770018473
926.45266	0.0768086538
925.02295	0.0766064376
923.59324	0.0763987601
922.16353	0.0761900395
920.73382	0.0759816095
919.30411	0.0757693872
917.87440	0.0755440891
916.44469	0.0752935112
915.01498	0.0750070736
913.58527	0.0746831670
912.15555	0.0743362159
910.72584	0.0739971846
909.29613	0.0737028643
907.86642	0.0734807178
906.43671	0.0733378157
905.00700	0.0732645765
903.57729	0.0732493475
902.14758	0.0732920021
900.71787	0.0734036267
899.28816	0.0735946000
897.85845	0.0738616958
896.42873	0.0741880238
894.99902	0.0745566785
893.56931	0.0749640986
892.13960	0.0754202157
890.70989	0.0759344622
889.28018	0.0765009373
887.85047	0.0770946071
886.42076	0.0776814818
884.99105	0.0782319829
883.56134	0.0787282512
882.13163	0.0791647956
880.70192	0.0795468390
879.27220	0.0798883662
877.84249	0.0802089870
876.41278	0.0805265680
874.98307	0.0808493495
873.55336	0.0811711475
872.12365	0.0814736709
870.69394	0.0817327797
869.26423	0.0819277987
867.83452	0.0820493251
866.40481	0.0821017027
864.97510	0.0820966065
863.54538	0.0820389464
862.11567	0.0819177032
860.68596	0.0817114040
859.25625	0.0814080983
857.82654	0.0810205117
856.39683	0.0805823505
854.96712	0.0801243037
853.53741	0.0796501264
852.10770	0.0791345090
850.67799	0.0785442442
849.24828	0.0778670684
847.81856	0.0771258920
846.38885	0.0763715655
844.95914	0.0756592527
843.52943	0.0750258416
842.09972	0.0744796097
840.67001	0.0740044937
839.24030	0.0735741481
837.81059	0.0731644779
836.38088	0.0727583468
834.95117	0.0723442733
833.52146	0.0719136149
832.09174	0.0714645535
830.66203	0.0710058883
829.23232	0.0705565140
827.80261	0.0701370239
826.37290	0.0697591230
824.94319	0.0694223121
823.51348	0.0691192299
822.08377	0.0688437894
820.65406	0.0685964972
819.22435	0.0683823377
817.79464	0.0682071224
816.36492	0.0680731162
814.93521	0.0679769889
813.50550	0.0679067671
812.07579	0.0678433329
810.64608	0.0677676499
809.21637	0.0676702335
807.78666	0.0675584376
806.35695	0.0674528107
804.92724	0.0673742071
803.49753	0.0673307404
802.06782	0.0673119128
800.63810	0.0672975853
799.20839	0.0672721639
797.77868	0.0672361106
796.34897	0.0672031119
794.91926	0.0671875179
793.48955	0.0671916306
792.05984	0.0672037750
790.63013	0.0672125965
789.20042	0.0672192499
787.77071	0.0672381967
786.34100	0.0672831088
784.91128	0.0673492700
783.48157	0.0674099103
782.05186	0.0674306527
780.62215	0.0673917457
779.19244	0.0673016310
777.76273	0.0671937093
776.33302	0.0671064258
774.90331	0.0670624375
773.47360	0.0670608059
772.04389	0.0670857579
770.61418	0.0671260878
769.18446	0.0671854019
767.75475	0.0672765747
766.32504	0.0674057975
764.89533	0.0675630346
763.46562	0.0677270144
762.03591	0.0678763762
760.60620	0.0679960623
759.17649	0.0680733845
757.74678	0.0680957660
756.31707	0.0680575222
754.88736	0.0679709986
753.45764	0.0678672418
752.02793	0.0677834153
750.59822	0.0677458048
749.16851	0.0677635670
747.73880	0.0678333715
746.30909	0.0679440573
744.87938	0.0680768117
743.44967	0.0682049394
742.01996	0.0683028698
740.59025	0.0683628544
739.16054	0.0684034601
737.73082	0.0684609190
736.30111	0.0685663298
734.87140	0.0687271133
733.44169	0.0689259619
732.01198	0.0691356808
730.58227	0.0693381503
729.15256	0.0695319995
727.72285	0.0697280020
726.29314	0.0699355528
724.86343	0.0701533034
723.43372	0.0703716204
722.00401	0.0705811232
720.57429	0.0707798526
719.14458	0.0709707439
717.71487	0.0711563230
716.28516	0.0713379905
714.85545	0.0715207979
713.42574	0.0717148259
711.99603	0.0719271749
710.56632	0.0721521303
709.13661	0.0723697469
707.70690	0.0725572109
706.27719	0.0727024302
704.84747	0.0728089735
703.41776	0.0728900656
701.98805	0.0729609802
700.55834	0.0730340183
699.12863	0.0731150657
697.69892	0.0731989145
696.26921	0.0732662305
694.83950	0.0732889995
693.40979	0.0732457265
691.98008	0.0731360167
690.55037	0.0729840994
689.12065	0.0728273988
687.69094	0.0726974085
686.26123	0.0726050586
684.83152	0.0725420937
683.40181	0.0724939182
681.97210	0.0724554360
680.54239	0.0724357143
679.11268	0.0724503621
677.68297	0.0725057572
676.25326	0.0725889951
674.82355	0.0726727471
673.39383	0.0727266967
671.96412	0.0727303997
670.53441	0.0726843402
669.10470	0.0726238489
667.67499	0.0726100802
666.24528	0.0726777911
664.81557	0.0727984086
663.38586	0.0729095042
661.95615	0.0729607940
660.52644	0.0729322284
659.09673	0.0728350505
657.66701	0.0727010816
656.23730	0.0725649521
654.80759	0.0724521354
653.37788	0.0723800212
651.94817	0.0723600835
650.51846	0.0723905414
649.08875	0.0724473298
647.65904	0.0724895149
646.22933	0.0724788979
644.79962	0.0724002048
643.36991	0.0722673759
641.94019	0.0721120313
640.51048	0.0719677135
639.08077	0.0718552098
637.65106	0.0717745498
636.22135	0.0717070997
634.79164	0.0716250613
633.36193	0.0715015680
631.93222	0.0713160560
630.50251	0.0710488483
629.07280	0.0706759393
627.64309	0.0701692104
626.21337	0.0695108548
624.78366	0.0687191710
623.35395	0.0678694770
621.92424	0.0670861229
620.49453	0.0664939582
619.06482	0.0661512539
617.63511	0.0660143569
616.20540	0.0659640953
614.77569	0.0658775344
613.34598	0.0656895563
611.91627	0.0654112175
610.48655	0.0651079193
609.05684	0.0648668036
607.62713	0.0647699460
606.19742	0.0648717061
604.76771	0.0651738197
603.33800	0.0656120256
601.90829	0.0660768896
600.47858	0.0664616749
599.04887	0.0667091459
