3997.47168	0.0337599628
3996.04197	0.0337442383
3994.61226	0.0337122045
3993.18255	0.0336780474
3991.75284	0.0336657688
3990.32312	0.0336962044
3988.89341	0.0337719098
3987.46370	0.0338716954
3986.03399	0.0339590460
3984.60428	0.0340029672
3983.17457	0.0339958556
3981.74486	0.0339554362
3980.31515	0.0339115188
3978.88544	0.0338879265
3977.45573	0.0338912010
3976.02602	0.0339136459
3974.59630	0.0339421667
3973.16659	0.0339645594
3971.73688	0.0339707471
3970.30717	0.0339556038
3968.87746	0.0339205600
3967.44775	0.0338772908
3966.01804	0.0338429809
3964.58833	0.0338313133
3963.15862	0.0338444076
3961.72891	0.0338715538
3960.29920	0.0338968001
3958.86948	0.0339072384
3957.43977	0.0338990651
3956.01006	0.0338771790
3954.58035	0.0338501185
3953.15064	0.0338241197
3951.72093	0.0337997787
3950.29122	0.0337743424
3948.86151	0.0337479040
3947.43180	0.0337274820
3946.00209	0.0337249078
3944.57238	0.0337470919
3943.14266	0.0337916911
3941.71295	0.0338502564
3940.28324	0.0339151584
3938.85353	0.0339804031
3937.42382	0.0340376832
3935.99411	0.0340718366
3934.56440	0.0340664349
3933.13469	0.0340157598
3931.70498	0.0339313634
3930.27527	0.0338357612
3928.84556	0.0337473154
3927.41585	0.0336763971
3925.98613	0.0336300209
3924.55642	0.0336178280
3923.12671	0.0336437821
3921.69700	0.0336968750
3920.26729	0.0337515958
3918.83758	0.0337846689
3917.40787	0.0337955803
3915.97816	0.0338080041
3914.54845	0.0338487737
3913.11874	0.0339207016
3911.68903	0.0339960232
3910.25931	0.0340303741
3908.82960	0.0339841284
3907.39989	0.0338395685
3905.97018	0.0336107798
3904.54047	0.0333492346
3903.11076	0.0331361257
3901.68105	0.0330486037
3900.25134	0.0331121273
3898.82163	0.0332849510
3897.39192	0.0334929600
3895.96221	0.0336729288
3894.53249	0.0337930322
3893.10278	0.0338570029
3891.67307	0.0338966288
3890.24336	0.0339473747
3888.81365	0.0340195410
3887.38394	0.0340881906
3885.95423	0.0341117382
3884.52452	0.0340660699
3883.09481	0.0339665189
3881.66510	0.0338608362
3880.23539	0.0337939002
3878.80567	0.0337767787
3877.37596	0.0337827913
3875.94625	0.0337707624
3874.51654	0.0337108895
3873.08683	0.0336033404
3871.65712	0.0334795415
3870.22741	0.0333844572
3868.79770	0.0333451815
3867.36799	0.0333570056
3865.93828	0.0334000848
3864.50857	0.0334622338
3863.07885	0.0335421488
3861.64914	0.0336353071
3860.21943	0.0337197036
3858.78972	0.0337543115
3857.36001	0.0336894058
3855.93030	0.0334972963
3854.50059	0.0332352072
3853.07088	0.0330738015
3851.64117	0.0331617184
3850.21146	0.0334680192
3848.78175	0.0338478237
3847.35203	0.0341727585
3845.92232	0.0343689211
3844.49261	0.0344105586
3843.06290	0.0343156345
3841.63319	0.0341437720
3840.20348	0.0339774638
3838.77377	0.0338858292
3837.34406	0.0338910036
3835.91435	0.0339654274
3834.48464	0.0340656526
3833.05493	0.0341647491
3831.62521	0.0342566110
3830.19550	0.0343437605
3828.76579	0.0344222970
3827.33608	0.0344773345
3825.90637	0.0344875082
3824.47666	0.0344355255
3823.04695	0.0343216285
3821.61724	0.0341745205
3820.18753	0.0340489931
3818.75782	0.0340006426
3817.32811	0.0340562984
3815.89839	0.0342025831
3814.46868	0.0343994051
3813.03897	0.0346014760
3811.60926	0.0347684436
3810.17955	0.0348699726
3808.74984	0.0348874480
3807.32013	0.0348220915
3805.89042	0.0346977487
3804.46071	0.0345524475
3803.03100	0.0344232246
3801.60129	0.0343402326
3800.17157	0.0343305096
3798.74186	0.0344110914
3797.31215	0.0345776193
3795.88244	0.0348021500
3794.45273	0.0350436941
3793.02302	0.0352629609
3791.59331	0.0354311131
3790.16360	0.0355321504
3788.73389	0.0355662853
3787.30418	0.0355516449
3785.87447	0.0355188623
3784.44475	0.0354961082
3783.01504	0.0354953781
3781.58533	0.0355137773
3780.15562	0.0355497375
3778.72591	0.0356104523
3777.29620	0.0357006826
3775.86649	0.0358065926
3774.43678	0.0358952880
3773.00707	0.0359329395
3771.57736	0.0359038375
3770.14765	0.0358222201
3768.71794	0.0357283093
3767.28822	0.0356650762
3765.85851	0.0356509723
3764.42880	0.0356724672
3762.99909	0.0356998406
3761.56938	0.0357119516
3760.13967	0.0357121788
3758.70996	0.0357212834
3757.28025	0.0357477032
3755.85054	0.0357647650
3754.42083	0.0357228853
3752.99112	0.0355937071
3751.56140	0.0354104117
3750.13169	0.0352625400
3748.70198	0.0352239944
3747.27227	0.0353044607
3745.84256	0.0354757719
3744.41285	0.0357177444
3742.98314	0.0360088684
3741.55343	0.0363021828
3740.12372	0.0365303420
3738.69401	0.0366331004
3737.26430	0.0365879834
3735.83458	0.0364427231
3734.40487	0.0363132171
3732.97516	0.0363050811
3731.54545	0.0364290141
3730.11574	0.0366187915
3728.68603	0.0368027389
3727.25632	0.0369424820
3725.82661	0.0370375291
3724.39690	0.0371145234
3722.96719	0.0372043066
3721.53748	0.0373212732
3720.10776	0.0374589264
3718.67805	0.0375993885
3717.24834	0.0377208963
3715.81863	0.0377985761
3714.38892	0.0378132910
3712.95921	0.0377772003
3711.52950	0.0377563871
3710.09979	0.0378387645
3708.67008	0.0380565412
3707.24037	0.0383632630
3705.81066	0.0386891589
3704.38094	0.0389923044
3702.95123	0.0392667353
3701.52152	0.0395285487
3700.09181	0.0397948883
3698.66210	0.0400696248
3697.23239	0.0403406732
3695.80268	0.0405864790
3694.37297	0.0407875814
3692.94326	0.0409412719
3691.51355	0.0410770327
3690.08384	0.0412534811
3688.65412	0.0415207110
3687.22441	0.0418764949
3685.79470	0.0422757976
3684.36499	0.0426717252
3682.93528	0.0430308245
3681.50557	0.0433293544
3680.07586	0.0435540788
3678.64615	0.0437163934
3677.21644	0.0438686907
3675.78673	0.0440926068
3674.35702	0.0444540605
3672.92730	0.0449686982
3671.49759	0.0456155278
3670.06788	0.0463627912
3668.63817	0.0471744202
3667.20846	0.0480160192
3665.77875	0.0488671288
3664.34904	0.0497229584
3662.91933	0.0505779795
3661.48962	0.0514145195
3660.05991	0.0522073358
3658.63020	0.0529445484
3657.20048	0.0536400415
3655.77077	0.0543217212
3654.34106	0.0550103486
3652.91135	0.0557212904
3651.48164	0.0564911738
3650.05193	0.0573881157
3648.62222	0.0584617592
3647.19251	0.0596744753
3645.76280	0.0609304123
3644.33309	0.0621649586
3642.90338	0.0633658543
3641.47366	0.0645414814
3640.04395	0.0656990111
3638.61424	0.0668391362
3637.18453	0.0679563135
3635.75482	0.0690371096
3634.32511	0.0700689778
3632.89540	0.0710634515
3631.46569	0.0720789358
3630.03598	0.0732037202
3628.60627	0.0744798854
3627.17656	0.0758443177
3625.74684	0.0771904513
3624.31713	0.0784650669
3622.88742	0.0796785504
3621.45771	0.0808622614
3620.02800	0.0820378140
3618.59829	0.0832113028
3617.16858	0.0843807608
3615.73887	0.0855418444
3614.30916	0.0866890103
3612.87945	0.0878251418
3611.44974	0.0889685079
3610.02003	0.0901463032
3608.59031	0.0913717374
3607.16060	0.0926312655
3605.73089	0.0938977376
3604.30118	0.0951490626
3602.87147	0.0963705853
3601.44176	0.0975501537
3600.01205	0.0986820161
3598.58234	0.0997798368
3597.15263	0.1008748487
3595.72292	0.1019919515
3594.29321	0.1031290963
3592.86349	0.1042668298
3591.43378	0.1053961292
3590.00407	0.1065299958
3588.57436	0.1076864004
3587.14465	0.1088648513
3585.71494	0.1100435704
3584.28523	0.1112000868
3582.85552	0.1123254597
3581.42581	0.1134205088
3579.99610	0.1144920141
3578.56639	0.1155553609
3577.13667	0.1166294739
3575.70696	0.1177228168
3574.27725	0.1188229024
3572.84754	0.1199062318
3571.41783	0.1209610403
3569.98812	0.1219963133
3568.55841	0.1230331287
3567.12870	0.1240907460
3565.69899	0.1251787543
3564.26928	0.1263003349
3562.83957	0.1274517179
3561.40985	0.1286192238
3559.98014	0.1297828257
3558.55043	0.1309314221
3557.12072	0.1320688576
3555.69101	0.1332054436
3554.26130	0.1343425363
3552.83159	0.1354705691
3551.40188	0.1365817189
3549.97217	0.1376807094
3548.54246	0.1387779713
3547.11275	0.1398756504
3545.68303	0.1409647316
3544.25332	0.1420323402
3542.82361	0.1430718899
3541.39390	0.1440849751
3539.96419	0.1450809687
3538.53448	0.1460766047
3537.10477	0.1470879316
3535.67506	0.1481158137
3534.24535	0.1491409987
3532.81564	0.1501399279
3531.38593	0.1511060447
3529.95621	0.1520564556
3528.52650	0.1530139595
3527.09679	0.1539901793
3525.66708	0.1549865454
3524.23737	0.1560067385
3522.80766	0.1570576131
3521.37795	0.1581361890
3519.94824	0.1592231691
3518.51853	0.1602937281
3517.08882	0.1613314748
3515.65911	0.1623299420
3514.22939	0.1632872522
3512.79968	0.1642066538
3511.36997	0.1651031673
3509.94026	0.1660013944
3508.51055	0.1669182032
3507.08084	0.1678517014
3505.65113	0.1687894166
3504.22142	0.1697260588
3502.79171	0.1706664264
3501.36200	0.1716101617
3499.93229	0.1725413799
3498.50257	0.1734400690
3497.07286	0.1742986441
3495.64315	0.1751241982
3494.21344	0.1759273857
3492.78373	0.1767145842
3491.35402	0.1774925143
3489.92431	0.1782725304
3488.49460	0.1790649444
3487.06489	0.1798711419
3485.63518	0.1806853116
3484.20547	0.1815033406
3482.77575	0.1823238879
3481.34604	0.1831378937
3479.91633	0.1839254051
3478.48662	0.1846718937
3477.05691	0.1853843927
3475.62720	0.1860914677
3474.19749	0.1868203133
3472.76778	0.1875786930
3471.33807	0.1883543730
3469.90836	0.1891265213
3468.47865	0.1898739785
3467.04893	0.1905792654
3465.61922	0.1912331730
3464.18951	0.1918437332
3462.75980	0.1924324185
3461.33009	0.1930184662
3459.90038	0.1936047971
3458.47067	0.1941821873
3457.04096	0.1947446167
3455.61125	0.1952975988
3454.18154	0.1958512515
3452.75183	0.1964099109
3451.32212	0.1969710439
3449.89240	0.1975288242
3448.46269	0.1980762482
3447.03298	0.1986071616
3445.60327	0.1991221607
3444.17356	0.1996343136
3442.74385	0.2001619488
3441.31414	0.2007117569
3439.88443	0.2012682408
3438.45472	0.2018049955
3437.02501	0.2023049295
3435.59530	0.2027714550
3434.16558	0.2032201290
3432.73587	0.2036634237
3431.30616	0.2041056454
3429.87645	0.2045430988
3428.44674	0.2049670964
3427.01703	0.2053650320
3425.58732	0.2057269663
3424.15761	0.2060559243
3422.72790	0.2063708454
3421.29819	0.2066955715
3419.86848	0.2070423216
3418.43876	0.2074065655
3417.00905	0.2077757269
3415.57934	0.2081402093
3414.14963	0.2084968537
3412.71992	0.2088455409
3411.29021	0.2091874629
3409.86050	0.2095234990
3408.43079	0.2098514736
3407.00108	0.2101642936
3405.57137	0.2104542553
3404.14166	0.2107206583
3402.71194	0.2109729201
3401.28223	0.2112223357
3399.85252	0.2114732414
3398.42281	0.2117204070
3396.99310	0.2119558305
3395.56339	0.2121723890
3394.13368	0.2123649269
3392.70397	0.2125304639
3391.27426	0.2126712799
3389.84455	0.2127969116
3388.41484	0.2129201889
3386.98512	0.2130503356
3385.55541	0.2131921202
3384.12570	0.2133514583
3382.69599	0.2135338038
3381.26628	0.2137386203
3379.83657	0.2139544636
3378.40686	0.2141682208
3376.97715	0.2143781185
3375.54744	0.2145964950
3374.11773	0.2148332596
3372.68802	0.2150773853
3371.25830	0.2152967006
3369.82859	0.2154593319
3368.39888	0.2155571729
3366.96917	0.2156125307
3365.53946	0.2156653106
3364.10975	0.2157481313
3362.68004	0.2158697844
3361.25033	0.2160168290
3359.82062	0.2161701769
3358.39091	0.2163243145
3356.96120	0.2164900154
3355.53148	0.2166785300
3354.10177	0.2168816924
3352.67206	0.2170706838
3351.24235	0.2172184289
3349.81264	0.2173234075
3348.38293	0.2174141854
3346.95322	0.2175294608
3345.52351	0.2176943421
3344.09380	0.2179095894
3342.66409	0.2181555331
3341.23438	0.2183991373
3339.80466	0.2186024934
3338.37495	0.2187356502
3336.94524	0.2187943012
3335.51553	0.2188094258
3334.08582	0.2188359350
3332.65611	0.2189268619
3331.22640	0.2191065848
3329.79669	0.2193625718
3328.36698	0.2196547091
3326.93727	0.2199354023
3325.50756	0.2201722264
3324.07784	0.2203623205
3322.64813	0.2205308974
3321.21842	0.2207124084
3319.78871	0.2209281325
3318.35900	0.2211790681
3316.92929	0.2214581221
3315.49958	0.2217696160
3314.06987	0.2221320122
3312.64016	0.2225600928
3311.21045	0.2230424583
3309.78074	0.2235338539
3308.35102	0.2239702195
3306.92131	0.2242970616
3305.49160	0.2244947702
3304.06189	0.2245883197
3302.63218	0.2246358246
3301.20247	0.2247031778
3299.77276	0.2248327434
3298.34305	0.2250238359
3296.91334	0.2252356261
3295.48363	0.2254099697
3294.05392	0.2254980206
3292.62421	0.2254795283
3291.19449	0.2253647298
3289.76478	0.2251854092
3288.33507	0.2249776870
3286.90536	0.2247642875
3285.47565	0.2245464325
3284.04594	0.2243096381
3282.61623	0.2240393311
3281.18652	0.2237339467
3279.75681	0.2234057635
3278.32710	0.2230672985
3276.89739	0.2227147073
3275.46767	0.2223199010
3274.03796	0.2218398005
3272.60825	0.2212370038
3271.17854	0.2205011696
3269.74883	0.2196562588
3268.31912	0.2187487632
3266.88941	0.2178267390
3265.45970	0.2169199884
3264.02999	0.2160368711
3262.60028	0.2151727974
3261.17057	0.2143206596
3259.74085	0.2134746015
3258.31114	0.2126273066
3256.88143	0.2117712498
3255.45172	0.2109078318
3254.02201	0.2100556940
3252.59230	0.2092455477
3251.16259	0.2085023373
3249.73288	0.2078241706
3248.30317	0.2071789801
3246.87346	0.2065210044
3245.44375	0.2058176100
3244.01403	0.2050691545
3242.58432	0.2043100893
3241.15461	0.2035908699
3239.72490	0.2029523402
3238.29519	0.2024071515
3236.86548	0.2019320279
3235.43577	0.2014775574
3234.00606	0.2009892762
3232.57635	0.2004312277
3231.14664	0.1998033971
3229.71693	0.1991411299
3228.28721	0.1984979361
3226.85750	0.1979178488
3225.42779	0.1974146962
3223.99808	0.1969688088
3222.56837	0.1965414733
3221.13866	0.1960966736
3219.70895	0.1956167519
3218.27924	0.1951058060
3216.84953	0.1945809871
3215.41982	0.1940595061
3213.99011	0.1935485154
3212.56039	0.1930423677
3211.13068	0.1925280243
3209.70097	0.1919958442
3208.27126	0.1914470494
3206.84155	0.1908946037
3205.41184	0.1903534532
3203.98213	0.1898301393
3202.55242	0.1893194914
3201.12271	0.1888108104
3199.69300	0.1882970929
3198.26329	0.1877787709
3196.83357	0.1872584522
3195.40386	0.1867340356
3193.97415	0.1861960590
3192.54444	0.1856337488
3191.11473	0.1850430220
3189.68502	0.1844293922
3188.25531	0.1838052422
3186.82560	0.1831849366
3185.39589	0.1825788170
3183.96618	0.1819898337
3182.53647	0.1814114302
3181.10675	0.1808279902
3179.67704	0.1802212596
3178.24733	0.1795796007
3176.81762	0.1789052337
3175.38791	0.1782127917
3173.95820	0.1775222421
3172.52849	0.1768500060
3171.09878	0.1762041748
3169.66907	0.1755843163
3168.23936	0.1749824584
3166.80965	0.1743864715
3165.37993	0.1737833768
3163.95022	0.1731647700
3162.52051	0.1725305915
3161.09080	0.1718893349
3159.66109	0.1712534577
3158.23138	0.1706311405
3156.80167	0.1700202525
3155.37196	0.1694094688
3153.94225	0.1687849015
3152.51254	0.1681398153
3151.08283	0.1674805731
3149.65311	0.1668254882
3148.22340	0.1661957502
3146.79369	0.1656055003
3145.36398	0.1650544852
3143.93427	0.1645290405
3142.50456	0.1640069187
3141.07485	0.1634669602
3139.64514	0.1628951430
3138.21543	0.1622896194
3136.78572	0.1616618335
3135.35601	0.1610307246
3133.92629	0.1604143530
3132.49658	0.1598216146
3131.06687	0.1592497975
3129.63716	0.1586897671
3128.20745	0.1581377238
3126.77774	0.1576012224
3125.34803	0.1570966840
3123.91832	0.1566365659
3122.48861	0.1562174559
3121.05890	0.1558156312
3119.62919	0.1553981155
3118.19948	0.1549393982
3116.76976	0.1544373482
3115.34005	0.1539134383
3113.91034	0.1533987075
3112.48063	0.1529127210
3111.05092	0.1524517238
3109.62121	0.1519956589
3108.19150	0.1515281796
3106.76179	0.1510519385
3105.33208	0.1505864412
3103.90237	0.1501496583
3102.47266	0.1497408152
3101.04294	0.1493402272
3099.61323	0.1489261538
3098.18352	0.1484947950
3096.75381	0.1480643749
3095.32410	0.1476613432
3093.89439	0.1472982764
3092.46468	0.1469644904
3091.03497	0.1466338784
3089.60526	0.1462839544
3088.17555	0.1459091902
3086.74584	0.1455220729
3085.31612	0.1451391429
3083.88641	0.1447673440
3082.45670	0.1443979591
3081.02699	0.1440122575
3079.59728	0.1435922682
3078.16757	0.1431307644
3076.73786	0.1426337212
3075.30815	0.1421187222
3073.87844	0.1416067779
3072.44873	0.1411140114
3071.01902	0.1406424344
3069.58930	0.1401783675
3068.15959	0.1396999657
3066.72988	0.1391900331
3065.30017	0.1386461109
3063.87046	0.1380809247
3062.44075	0.1375133097
3061.01104	0.1369572431
3059.58133	0.1364162266
3058.15162	0.1358843893
3056.72191	0.1353520155
3055.29220	0.1348118931
3053.86248	0.1342635751
3052.43277	0.1337150782
3051.00306	0.1331793070
3049.57335	0.1326671690
3048.14364	0.1321793944
3046.71393	0.1317019761
3045.28422	0.1312103420
3043.85451	0.1306809038
3042.42480	0.1301044226
3040.99509	0.1294934154
3039.56538	0.1288750768
3038.13566	0.1282734722
3036.70595	0.1276938617
3035.27624	0.1271203160
3033.84653	0.1265312582
3032.41682	0.1259181947
3030.98711	0.1252941042
3029.55740	0.1246844009
3028.12769	0.1241093799
3026.69798	0.1235749647
3025.26827	0.1230746731
3023.83856	0.1225997806
3022.40884	0.1221465245
3020.97913	0.1217162162
3019.54942	0.1213090271
3018.11971	0.1209178865
3016.69000	0.1205243915
3015.26029	0.1201034337
3013.83058	0.1196347103
3012.40087	0.1191167310
3010.97116	0.1185715795
3009.54145	0.1180368587
3008.11174	0.1175486073
3006.68202	0.1171264201
3005.25231	0.1167696789
3003.82260	0.1164655834
3002.39289	0.1161985770
3000.96318	0.1159572527
2999.53347	0.1157360673
2998.10376	0.1155330986
2996.67405	0.1153487563
2995.24434	0.1151834950
2993.81463	0.1150372922
2992.38492	0.1149115711
2990.95520	0.1148134768
2989.52549	0.1147565916
2988.09578	0.1147579774
2986.66607	0.1148307696
2985.23636	0.1149767041
2983.80665	0.1151830629
2982.37694	0.1154264510
2980.94723	0.1156807542
2979.51752	0.1159242913
2978.08781	0.1161461100
2976.65810	0.1163467243
2975.22838	0.1165346727
2973.79867	0.1167215854
2972.36896	0.1169168428
2970.93925	0.1171243191
2969.50954	0.1173398346
2968.07983	0.1175513864
2966.65012	0.1177390739
2965.22041	0.1178767234
2963.79070	0.1179384291
2962.36099	0.1179029718
2960.93128	0.1177606359
2959.50157	0.1175139993
2958.07185	0.1171751395
2956.64214	0.1167593151
2955.21243	0.1162809879
2953.78272	0.1157563403
2952.35301	0.1152099594
2950.92330	0.1146772057
2949.49359	0.1141972169
2948.06388	0.1137973219
2946.63417	0.1134820580
2945.20446	0.1132366583
2943.77475	0.1130418107
2942.34503	0.1128881276
2940.91532	0.1127802134
2939.48561	0.1127278954
2938.05590	0.1127352118
2936.62619	0.1127935424
2935.19648	0.1128824204
2933.76677	0.1129715294
2932.33706	0.1130247787
2930.90735	0.1130059138
2929.47764	0.1128877625
2928.04793	0.1126616895
2926.61821	0.1123410836
2925.18850	0.1119524986
2923.75879	0.1115218997
2922.32908	0.1110595614
2920.89937	0.1105555743
2919.46966	0.1099853814
2918.03995	0.1093250886
2916.61024	0.1085630804
2915.18053	0.1077081263
2913.75082	0.1067862958
2912.32111	0.1058343351
2910.89139	0.1048903987
2909.46168	0.1039896831
2908.03197	0.1031591669
2906.60226	0.1024135649
2905.17255	0.1017523035
2903.74284	0.1011611298
2902.31313	0.1006211042
2900.88342	0.1001181602
2899.45371	0.0996453688
2898.02400	0.0991996899
2896.59429	0.0987760499
2895.16457	0.0983684063
2893.73486	0.0979748070
2892.30515	0.0976032391
2890.87544	0.0972682536
2889.44573	0.0969827548
2888.01602	0.0967500284
2886.58631	0.0965648890
2885.15660	0.0964198411
2883.72689	0.0963139385
2882.29718	0.0962530300
2880.86747	0.0962438583
2879.43775	0.0962804928
2878.00804	0.0963349119
2876.57833	0.0963563323
2875.14862	0.0962863788
2873.71891	0.0960816368
2872.28920	0.0957333371
2870.85949	0.0952709913
2869.42978	0.0947479978
2868.00007	0.0942184255
2866.57036	0.0937188268
2865.14065	0.0932627916
2863.71093	0.0928489044
2862.28122	0.0924706459
2860.85151	0.0921226069
2859.42180	0.0917994380
2857.99209	0.0914921016
2856.56238	0.0911844671
2855.13267	0.0908537582
2853.70296	0.0904746875
2852.27325	0.0900230929
2850.84354	0.0894835964
2849.41383	0.0888557956
2847.98411	0.0881613195
2846.55440	0.0874423012
2845.12469	0.0867487490
2843.69498	0.0861202404
2842.26527	0.0855690166
2840.83556	0.0850804895
2839.40585	0.0846284330
2837.97614	0.0841931254
2836.54643	0.0837699920
2835.11672	0.0833642036
2833.68701	0.0829797909
2832.25729	0.0826154724
2830.82758	0.0822689831
2829.39787	0.0819440261
2827.96816	0.0816487670
2826.53845	0.0813900530
2825.10874	0.0811644718
2823.67903	0.0809587538
2822.24932	0.0807558745
2820.81961	0.0805433691
2819.38990	0.0803175420
2817.96019	0.0800833330
2816.53047	0.0798497871
2815.10076	0.0796247870
2813.67105	0.0794115588
2812.24134	0.0792072564
2810.81163	0.0790050998
2809.38192	0.0787992254
2807.95221	0.0785902143
2806.52250	0.0783867389
2805.09279	0.0782020390
2803.66308	0.0780443773
2802.23337	0.0779083222
2800.80366	0.0777732432
2799.37394	0.0776144043
2797.94423	0.0774186179
2796.51452	0.0771939456
2795.08481	0.0769627169
2793.65510	0.0767437220
2792.22539	0.0765361264
2790.79568	0.0763217583
2789.36597	0.0760819539
2787.93626	0.0758153424
2786.50655	0.0755411312
2785.07684	0.0752857253
2783.64712	0.0750655681
2782.21741	0.0748796016
2780.78770	0.0747145936
2779.35799	0.0745555460
2777.92828	0.0743920058
2776.49857	0.0742178187
2775.06886	0.0740296021
2773.63915	0.0738265589
2772.20944	0.0736126006
2770.77973	0.0733963549
2769.35002	0.0731860101
2767.92030	0.0729849562
2766.49059	0.0727895051
2765.06088	0.0725924224
2763.63117	0.0723884329
2762.20146	0.0721774101
2760.77175	0.0719635934
2759.34204	0.0717535689
2757.91233	0.0715555549
2756.48262	0.0713787153
2755.05291	0.0712307096
2753.62320	0.0711100027
2752.19348	0.0710013807
2750.76377	0.0708769932
2749.33406	0.0707097799
2747.90435	0.0704881847
2746.47464	0.0702249259
2745.04493	0.0699507222
2743.61522	0.0696989745
2742.18551	0.0694888011
2740.75580	0.0693177506
2739.32609	0.0691672191
2737.89638	0.0690145642
2736.46666	0.0688456073
2735.03695	0.0686616451
2733.60724	0.0684750378
2732.17753	0.0683002025
2730.74782	0.0681418851
2729.31811	0.0679911897
2727.88840	0.0678306818
2726.45869	0.0676456392
2725.02898	0.0674334019
2723.59927	0.0672038347
2722.16956	0.0669718832
2720.73984	0.0667487159
2719.31013	0.0665377006
2717.88042	0.0663367137
2716.45071	0.0661421791
2715.02100	0.0659521893
2713.59129	0.0657649934
2712.16158	0.0655792654
2710.73187	0.0653956607
2709.30216	0.0652184263
2707.87245	0.0650544241
2706.44274	0.0649072900
2705.01302	0.0647730753
2703.58331	0.0646408126
2702.15360	0.0645001605
2700.72389	0.0643475652
2699.29418	0.0641877428
2697.86447	0.0640298948
2696.43476	0.0638793558
2695.00505	0.0637344792
2693.57534	0.0635872856
2692.14563	0.0634285137
2690.71592	0.0632528588
2689.28620	0.0630640686
2687.85649	0.0628747940
2686.42678	0.0627021641
2684.99707	0.0625594780
2683.56736	0.0624492615
2682.13765	0.0623618737
2680.70794	0.0622783564
2679.27823	0.0621787570
2677.84852	0.0620500930
2676.41881	0.0618896484
2674.98910	0.0617055371
2673.55938	0.0615111850
2672.12967	0.0613191873
2670.69996	0.0611365996
2669.27025	0.0609655604
2667.84054	0.0608070008
2666.41083	0.0606638007
2664.98112	0.0605406426
2663.55141	0.0604388826
2662.12170	0.0603528209
2660.69199	0.0602698103
2659.26228	0.0601756349
2657.83256	0.0600611493
2656.40285	0.0599265136
2654.97314	0.0597799495
2653.54343	0.0596331097
2652.11372	0.0594954006
2650.68401	0.0593698733
2649.25430	0.0592552125
2647.82459	0.0591469295
2646.39488	0.0590413436
2644.96517	0.0589374155
2643.53546	0.0588370077
2642.10575	0.0587431118
2640.67603	0.0586570315
2639.24632	0.0585760921
2637.81661	0.0584939793
2636.38690	0.0584038310
2634.95719	0.0583034903
2633.52748	0.0581977218
2632.09777	0.0580959171
2630.66806	0.0580051728
2629.23835	0.0579265133
2627.80864	0.0578537807
2626.37893	0.0577784032
2624.94921	0.0576945245
2623.51950	0.0576009341
2622.08979	0.0575008653
2620.66008	0.0573998727
2619.23037	0.0573034808
2617.80066	0.0572146438
2616.37095	0.0571325272
2614.94124	0.0570533760
2613.51153	0.0569730587
2612.08182	0.0568912514
2610.65211	0.0568133257
2609.22239	0.0567474477
2607.79268	0.0566986017
2606.36297	0.0566637963
2604.93326	0.0566320345
2603.50355	0.0565903932
2602.07384	0.0565316267
2600.64413	0.0564584509
2599.21442	0.0563816912
2597.78471	0.0563143790
2596.35500	0.0562639274
2594.92529	0.0562306046
2593.49557	0.0562079176
2592.06586	0.0561876483
2590.63615	0.0561649613
2589.20644	0.0561401285
2587.77673	0.0561183579
2586.34702	0.0561044849
2584.91731	0.0560981818
2583.48760	0.0560935587
2582.05789	0.0560824536
2580.62818	0.0560612753
2579.19847	0.0560349748
2577.76875	0.0560131818
2576.33904	0.0560026392
2574.90933	0.0560006388
2573.47962	0.0559964553
2572.04991	0.0559783168
2570.62020	0.0559427738
2569.19049	0.0558983162
2567.76078	0.0558601320
2566.33107	0.0558412895
2564.90136	0.0558457077
2563.47165	0.0558674037
2562.04193	0.0558973439
2560.61222	0.0559289940
2559.18251	0.0559609421
2557.75280	0.0559931584
2556.32309	0.0560237244
2554.89338	0.0560476109
2553.46367	0.0560609214
2552.03396	0.0560650453
2550.60425	0.0560666062
2549.17454	0.0560738817
2547.74483	0.0560920537
2546.31511	0.0561213642
2544.88540	0.0561585687
2543.45569	0.0562008768
2542.02598	0.0562476628
2540.59627	0.0563009977
2539.16656	0.0563627407
2537.73685	0.0564322434
2536.30714	0.0565043241
2534.87743	0.0565710478
2533.44772	0.0566246584
2532.01801	0.0566629395
2530.58829	0.0566914342
2529.15858	0.0567213409
2527.72887	0.0567639396
2526.29916	0.0568237416
2524.86945	0.0568957068
2523.43974	0.0569689274
2522.01003	0.0570325926
2520.58032	0.0570820682
2519.15061	0.0571204498
2517.72090	0.0571562946
2516.29119	0.0571992882
2514.86147	0.0572551936
2513.43176	0.0573233627
2512.00205	0.0573969781
2510.57234	0.0574659668
2509.14263	0.0575229116
2507.71292	0.0575682446
2506.28321	0.0576095656
2504.85350	0.0576561801
2503.42379	0.0577131473
2501.99408	0.0577786677
2500.56437	0.0578458272
2499.13465	0.0579085574
2497.70494	0.0579650551
2496.27523	0.0580192842
2494.84552	0.0580781922
2493.41581	0.0581468455
2491.98610	0.0582248047
2490.55639	0.0583050884
2489.12668	0.0583795793
2487.69697	0.0584460013
2486.26726	0.0585113987
2484.83755	0.0585866086
2483.40784	0.0586752519
2481.97812	0.0587683022
2480.54841	0.0588482693
2479.11870	0.0589030534
2477.68899	0.0589365847
2476.25928	0.0589670911
2474.82957	0.0590147749
2473.39986	0.0590888560
2471.97015	0.0591820516
2470.54044	0.0592761002
2469.11073	0.0593534634
2467.68102	0.0594054572
2466.25130	0.0594352596
2464.82159	0.0594532453
2463.39188	0.0594714731
2461.96217	0.0594985187
2460.53246	0.0595383570
2459.10275	0.0595913567
2457.67304	0.0596553199
2456.24333	0.0597253516
2454.81362	0.0597944483
2453.38391	0.0598556474
2451.95420	0.0599051788
2450.52448	0.0599451773
2449.09477	0.0599821173
2447.66506	0.0600225963
2446.23535	0.0600687005
2444.80564	0.0601163507
2443.37593	0.0601580627
2441.94622	0.0601878576
2440.51651	0.0602051914
2439.08680	0.0602164306
2437.65709	0.0602320135
2436.22738	0.0602596998
2434.79766	0.0603011586
2433.36795	0.0603501461
2431.93824	0.0603977405
2430.50853	0.0604368001
2429.07882	0.0604653619
2427.64911	0.0604847334
2426.21940	0.0604975559
2424.78969	0.0605066903
2423.35998	0.0605164208
2421.93027	0.0605321340
2420.50056	0.0605567731
2419.07084	0.0605879612
2417.64113	0.0606169812
2416.21142	0.0606342442
2414.78171	0.0606355816
2413.35200	0.0606248081
2411.92229	0.0606111772
2410.49258	0.0606044792
2409.06287	0.0606104322
2407.63316	0.0606304631
2406.20345	0.0606605262
2404.77374	0.0606935695
2403.34402	0.0607203618
2401.91431	0.0607337877
2400.48460	0.0607326254
2399.05489	0.0607219674
2397.62518	0.0607097037
2396.19547	0.0607015453
2394.76576	0.0606977344
2393.33605	0.0606933609
2391.90634	0.0606824942
2390.47663	0.0606621914
2389.04692	0.0606335290
2387.61720	0.0605996586
2386.18749	0.0605629943
2384.75778	0.0605216883
2383.32807	0.0604708083
2381.89836	0.0604049079
2380.46865	0.0603201315
2379.03894	0.0602148846
2377.60923	0.0600875765
2376.17952	0.0599329025
2374.74981	0.0597420745
2373.32010	0.0595057607
2371.89038	0.0592188388
2370.46067	0.0588854440
2369.03096	0.0585198104
2367.60125	0.0581425540
2366.17154	0.0577747673
2364.74183	0.0574322827
2363.31212	0.0571280383
2361.88241	0.0568773523
2360.45270	0.0567037016
2359.02299	0.0566364266
2357.59328	0.0567015782
2356.16356	0.0569084249
2354.73385	0.0572340749
2353.30414	0.0576231927
2351.87443	0.0580092818
2350.44472	0.0583356433
2349.01501	0.0585625246
2347.58530	0.0586618297
2346.15559	0.0586181283
2344.72588	0.0584409386
2343.29617	0.0581816509
2341.86646	0.0579245314
2340.43674	0.0577425659
2339.00703	0.0576560907
2337.57732	0.0576377660
2336.14761	0.0576479323
2334.71790	0.0576617979
2333.28819	0.0576792099
2331.85848	0.0577139184
2330.42877	0.0577740259
2328.99906	0.0578494035
2327.56935	0.0579164252
2326.13964	0.0579575412
2324.70993	0.0579763576
2323.28021	0.0579968877
2321.85050	0.0580449067
2320.42079	0.0581292100
2318.99108	0.0582364090
2317.56137	0.0583431609
2316.13166	0.0584322326
2314.70195	0.0585005283
2313.27224	0.0585558005
2311.84253	0.0586082339
2310.41282	0.0586630739
2308.98311	0.0587192550
2307.55339	0.0587718897
2306.12368	0.0588156357
2304.69397	0.0588466115
2303.26426	0.0588627942
2301.83455	0.0588644259
2300.40484	0.0588553250
2298.97513	0.0588424616
2297.54542	0.0588336289
2296.11571	0.0588323809
2294.68600	0.0588363819
2293.25629	0.0588378049
2291.82657	0.0588292405
2290.39686	0.0588085502
2288.96715	0.0587810464
2287.53744	0.0587552935
2286.10773	0.0587381050
2284.67802	0.0587286204
2283.24831	0.0587185435
2281.81860	0.0586956404
2280.38889	0.0586510152
2278.95918	0.0585844740
2277.52947	0.0585071035
2276.09975	0.0584372655
2274.67004	0.0583907738
2273.24033	0.0583712906
2271.81062	0.0583665222
2270.38091	0.0583545603
2268.95120	0.0583166033
2267.52149	0.0582480729
2266.09178	0.0581598394
2264.66207	0.0580710322
2263.23236	0.0579987504
2261.80265	0.0579519495
2260.37293	0.0579306521
2258.94322	0.0579281375
2257.51351	0.0579340272
2256.08380	0.0579367466
2254.65409	0.0579268076
2253.22438	0.0578994192
2251.79467	0.0578561760
2250.36496	0.0578043945
2248.93525	0.0577532090
2247.50554	0.0577101037
2246.07583	0.0576777607
2244.64611	0.0576539934
2243.21640	0.0576334186
2241.78669	0.0576115176
2240.35698	0.0575870126
2238.92727	0.0575615950
2237.49756	0.0575382486
2236.06785	0.0575186834
2234.63814	0.0575039387
2233.20843	0.0574935935
2231.77872	0.0574857071
2230.34901	0.0574757457
2228.91929	0.0574581660
2227.48958	0.0574295372
2226.05987	0.0573910996
2224.63016	0.0573480874
2223.20045	0.0573060215
2221.77074	0.0572661795
2220.34103	0.0572258085
2218.91132	0.0571814813
2217.48161	0.0571340024
2216.05190	0.0570888296
2214.62219	0.0570521057
2213.19247	0.0570244454
2211.76276	0.0569993258
2210.33305	0.0569667406
2208.90334	0.0569200255
2207.47363	0.0568605922
2206.04392	0.0567964204
2204.61421	0.0567358546
2203.18450	0.0566840880
2201.75479	0.0566417053
2200.32508	0.0566065535
2198.89537	0.0565745570
2197.46565	0.0565399714
2196.03594	0.0564979836
2194.60623	0.0564481318
2193.17652	0.0563947223
2191.74681	0.0563442037
2190.31710	0.0562994964
2188.88739	0.0562582724
2187.45768	0.0562160499
2186.02797	0.0561705306
2184.59826	0.0561233945
2183.16855	0.0560778566
2181.73883	0.0560363308
2180.30912	0.0560000464
2178.87941	0.0559698343
2177.44970	0.0559450425
2176.01999	0.0559227243
2174.59028	0.0558976978
2173.16057	0.0558651350
2171.73086	0.0558231287
2170.30115	0.0557724684
2168.87144	0.0557151660
2167.44173	0.0556524880
2166.01202	0.0555854924
2164.58230	0.0555160344
2163.15259	0.0554479435
2161.72288	0.0553876534
2160.29317	0.0553423986
2158.86346	0.0553163178
2157.43375	0.0553061180
2156.00404	0.0552998260
2154.57433	0.0552809797
2153.14462	0.0552387349
2151.71491	0.0551745072
2150.28520	0.0551027060
2148.85548	0.0550422296
2147.42577	0.0550052077
2145.99606	0.0549907535
2144.56635	0.0549859330
2143.13664	0.0549733602
2141.70693	0.0549416319
2140.27722	0.0548901670
2138.84751	0.0548290163
2137.41780	0.0547702201
2135.98809	0.0547208041
2134.55838	0.0546791703
2133.12866	0.0546382740
2131.69895	0.0545915402
2130.26924	0.0545382388
2128.83953	0.0544828027
2127.40982	0.0544321239
2125.98011	0.0543904006
2124.55040	0.0543561317
2123.12069	0.0543235391
2121.69098	0.0542872846
2120.26127	0.0542465709
2118.83156	0.0542056300
2117.40184	0.0541688539
2115.97213	0.0541360416
2114.54242	0.0541010611
2113.11271	0.0540562049
2111.68300	0.0539988652
2110.25329	0.0539337061
2108.82358	0.0538710766
2107.39387	0.0538207330
2105.96416	0.0537864827
2104.53445	0.0537643321
2103.10474	0.0537456423
2101.67502	0.0537217669
2100.24531	0.0536891930
2098.81560	0.0536495596
2097.38589	0.0536071509
2095.95618	0.0535650104
2094.52647	0.0535242185
2093.09676	0.0534849539
2091.66705	0.0534471869
2090.23734	0.0534096882
2088.80763	0.0533697307
2087.37792	0.0533255935
2085.94820	0.0532794669
2084.51849	0.0532391742
2083.08878	0.0532130450
2081.65907	0.0532042347
2080.22936	0.0532065779
2078.79965	0.0532074533
2077.36994	0.0531940833
2075.94023	0.0531596765
2074.51052	0.0531052612
2073.08081	0.0530388318
2071.65110	0.0529711284
2070.22138	0.0529124402
2068.79167	0.0528690517
2067.36196	0.0528403707
2065.93225	0.0528202578
2064.50254	0.0527998209
2063.07283	0.0527718179
2061.64312	0.0527334101
2060.21341	0.0526867360
2058.78370	0.0526366495
2057.35399	0.0525887273
2055.92428	0.0525465384
2054.49456	0.0525116585
2053.06485	0.0524829999
2051.63514	0.0524573848
2050.20543	0.0524313301
2048.77572	0.0524026491
2047.34601	0.0523713715
2045.91630	0.0523388386
2044.48659	0.0523057841
2043.05688	0.0522722043
2041.62717	0.0522375517
2040.19746	0.0522039495
2038.76774	0.0521758087
2037.33803	0.0521574467
2035.90832	0.0521486029
2034.47861	0.0521421842
2033.04890	0.0521261878
2031.61919	0.0520902313
2030.18948	0.0520322733
2028.75977	0.0519609042
2027.33006	0.0518902726
2025.90035	0.0518322289
2024.47064	0.0517896451
2023.04092	0.0517571270
2021.61121	0.0517267138
2020.18150	0.0516951047
2018.75179	0.0516661815
2017.32208	0.0516471714
2015.89237	0.0516440794
2014.46266	0.0516572893
2013.03295	0.0516812243
2011.60324	0.0517071486
2010.17353	0.0517258383
2008.74382	0.0517307073
2007.31411	0.0517197140
2005.88439	0.0516951904
2004.45468	0.0516622439
2003.02497	0.0516278408
2001.59526	0.0515989810
2000.16555	0.0515811108
1998.73584	0.0515753701
1997.30613	0.0515772924
1995.87642	0.0515796542
1994.44671	0.0515777580
1993.01700	0.0515738800
1991.58729	0.0515750200
1990.15757	0.0515869111
1988.72786	0.0516082793
1987.29815	0.0516319536
1985.86844	0.0516508147
1984.43873	0.0516618080
1983.00902	0.0516678989
1981.57931	0.0516739376
1980.14960	0.0516846068
1978.71989	0.0517025962
1977.29018	0.0517291613
1975.86047	0.0517652072
1974.43075	0.0518093891
1973.00104	0.0518569313
1971.57133	0.0518991724
1970.14162	0.0519282557
1968.71191	0.0519414134
1967.28220	0.0519438945
1965.85249	0.0519450046
1964.42278	0.0519517735
1962.99307	0.0519651920
1961.56336	0.0519829616
1960.13365	0.0520022176
1958.70393	0.0520226434
1957.27422	0.0520452298
1955.84451	0.0520728379
1954.41480	0.0521096699
1952.98509	0.0521593764
1951.55538	0.0522214361
1950.12567	0.0522876531
1948.69596	0.0523457602
1947.26625	0.0523859151
1945.83654	0.0524076149
1944.40683	0.0524199978
1942.97711	0.0524369664
1941.54740	0.0524683371
1940.11769	0.0525153689
1938.68798	0.0525723062
1937.25827	0.0526319146
1935.82856	0.0526910610
1934.39885	0.0527512990
1932.96914	0.0528149940
1931.53943	0.0528812706
1930.10972	0.0529443696
1928.68001	0.0529977120
1927.25029	0.0530372560
1925.82058	0.0530620590
1924.39087	0.0530721210
1922.96116	0.0530683473
1921.53145	0.0530580804
1920.10174	0.0530571714
1918.67203	0.0530848131
1917.24232	0.0531512499
1915.81261	0.0532495044
1914.38290	0.0533592813
1912.95319	0.0534590743
1911.52347	0.0535365753
1910.09376	0.0535916016
1908.66405	0.0536348894
1907.23434	0.0536819845
1905.80463	0.0537446477
1904.37492	0.0538243987
1902.94521	0.0539139211
1901.51550	0.0540042557
1900.08579	0.0540912412
1898.65608	0.0541762449
1897.22637	0.0542607382
1895.79665	0.0543422587
1894.36694	0.0544163100
1892.93723	0.0544808954
1891.50752	0.0545383580
1890.07781	0.0545937121
1888.64810	0.0546522774
1887.21839	0.0547194518
1885.78868	0.0548001155
1884.35897	0.0548955128
1882.92926	0.0550013594
1881.49955	0.0551095828
1880.06983	0.0552131310
1878.64012	0.0553089678
1877.21041	0.0553970076
1875.78070	0.0554755032
1874.35099	0.0555391572
1872.92128	0.0555805787
1871.49157	0.0555970557
1870.06186	0.0555979684
1868.63215	0.0556085892
1867.20244	0.0556587242
1865.77273	0.0557618737
1864.34301	0.0559051745
1862.91330	0.0560617484
1861.48359	0.0562092438
1860.05388	0.0563406087
1858.62417	0.0564610176
1857.19446	0.0565776229
1855.76475	0.0566920526
1854.33504	0.0568024069
1852.90533	0.0569084547
1851.47562	0.0570101291
1850.04591	0.0571021736
1848.61619	0.0571746305
1847.18648	0.0572233833
1845.75677	0.0572610088
1844.32706	0.0573156811
1842.89735	0.0574101247
1841.46764	0.0575452521
1840.03793	0.0577037483
1838.60822	0.0578667074
1837.17851	0.0580209121
1835.74880	0.0581586845
1834.31909	0.0582768172
1832.88938	0.0583765022
1831.45966	0.0584640689
1830.02995	0.0585496388
1828.60024	0.0586456805
1827.17053	0.0587650128
1825.74082	0.0589150600
1824.31111	0.0590913147
1822.88140	0.0592780896
1821.45169	0.0594576709
1820.02198	0.0596210212
1818.59227	0.0597697012
1817.16256	0.0599079430
1815.73284	0.0600360893
1814.30313	0.0601538718
1812.87342	0.0602682345
1811.44371	0.0603943765
1810.01400	0.0605439767
1808.58429	0.0607136935
1807.15458	0.0608869866
1805.72487	0.0610469170
1804.29516	0.0611854158
1802.86545	0.0613048784
1801.43574	0.0614153408
1800.00602	0.0615304224
1798.57631	0.0616592020
1797.14660	0.0617993586
1795.71689	0.0619398877
1794.28718	0.0620743744
1792.85747	0.0622133203
1791.42776	0.0623802803
1789.99805	0.0625886247
1788.56834	0.0628281534
1787.13863	0.0630775690
1785.70892	0.0633228421
1784.27920	0.0635621995
1782.84949	0.0637991503
1781.41978	0.0640343949
1779.99007	0.0642645732
1778.56036	0.0644835234
1777.13065	0.0646822378
1775.70094	0.0648513585
1774.27123	0.0649926662
1772.84152	0.0651343241
1771.41181	0.0653245300
1769.98210	0.0655916706
1768.55238	0.0659168810
1767.12267	0.0662574694
1765.69296	0.0665848330
1764.26325	0.0668969899
1762.83354	0.0672085807
1761.40383	0.0675376952
1759.97412	0.0678988621
1758.54441	0.0682972968
1757.11470	0.0687246248
1755.68499	0.0691609085
1754.25528	0.0695903972
1752.82556	0.0700207353
1751.39585	0.0704870299
1749.96614	0.0710268319
1748.53643	0.0716431662
1747.10672	0.0723004863
1745.67701	0.0729606450
1744.24730	0.0736072361
1742.81759	0.0742350146
1741.38788	0.0748338997
1739.95817	0.0753924698
1738.52846	0.0759165511
1737.09874	0.0764382035
1735.66903	0.0770062953
1734.23932	0.0776642710
1732.80961	0.0784257427
1731.37990	0.0792672485
1729.95019	0.0801533163
1728.52048	0.0810614452
1727.09077	0.0819867253
1725.66106	0.0829329789
1724.23135	0.0839039013
1722.80164	0.0849040374
1721.37192	0.0859534889
1719.94221	0.0871079117
1718.51250	0.0884474888
1717.08279	0.0899971351
1715.65308	0.0916454196
1714.22337	0.0932198614
1712.79366	0.0946478769
1711.36395	0.0959811136
1709.93424	0.0973150209
1708.50453	0.0987253934
1707.07482	0.1002538502
1705.64510	0.1019293591
1704.21539	0.1038061604
1702.78568	0.1059886441
1701.35597	0.1086109132
1699.92626	0.1117440611
1698.49655	0.1152603477
1697.06684	0.1188255548
1695.63713	0.1221159026
1694.20742	0.1250096411
1692.77771	0.1275610477
1691.34800	0.1298892200
1689.91828	0.1321243644
1688.48857	0.1344181299
1687.05886	0.1369594187
1685.62915	0.1399092674
1684.19944	0.1432084441
1682.76973	0.1465007663
1681.34002	0.1494461149
1679.91031	0.1520163417
1678.48060	0.1544047594
1677.05089	0.1568156779
1675.62118	0.1593582481
1674.19147	0.1620485038
1672.76175	0.1648739576
1671.33204	0.1678342521
1669.90233	0.1708989888
1668.47262	0.1739651710
1667.04291	0.1769207269
1665.61320	0.1797420233
1664.18349	0.1824805737
1662.75378	0.1851475984
1661.32407	0.1876308024
1659.89436	0.1897490323
1658.46465	0.1913583875
1657.03493	0.1923634857
1655.60522	0.1926445812
1654.17551	0.1920681447
1652.74580	0.1906867474
1651.31609	0.1888517588
1649.88638	0.1869004071
1648.45667	0.1848890185
1647.02696	0.1827715486
1645.59725	0.1806472987
1644.16754	0.1787297577
1642.73783	0.1771235317
1641.30811	0.1757137626
1639.87840	0.1742345393
1638.44869	0.1723972410
1637.01898	0.1700619608
1635.58927	0.1674088240
1634.15956	0.1648337394
1632.72985	0.1625567228
1631.30014	0.1604612470
1629.87043	0.1582652628
1628.44072	0.1556932032
1627.01101	0.1525662094
1625.58129	0.1488814354
1624.15158	0.1448390186
1622.72187	0.1407158673
1621.29216	0.1366576254
1619.86245	0.1326057613
1618.43274	0.1284302920
1617.00303	0.1241556853
1615.57332	0.1200525165
1614.14361	0.1164424643
1612.71390	0.1134286076
1611.28419	0.1108727306
1609.85447	0.1085724533
1608.42476	0.1064183563
1606.99505	0.1044232473
1605.56534	0.1026488170
1604.13563	0.1011234894
1602.70592	0.0998283699
1601.27621	0.0987345204
1599.84650	0.0978244171
1598.41679	0.0970790759
1596.98708	0.0964685827
1595.55737	0.0959678069
1594.12765	0.0955778882
1592.69794	0.0953206718
1591.26823	0.0952111036
1589.83852	0.0952420458
1588.40881	0.0953955725
1586.97910	0.0956572816
1585.54939	0.0960132703
1584.11968	0.0964400768
1582.68997	0.0969085470
1581.26026	0.0974051654
1579.83055	0.0979488567
1578.40083	0.0985841006
1576.97112	0.0993470699
1575.54141	0.1002296880
1574.11170	0.1011869758
1572.68199	0.1021897048
1571.25228	0.1032534167
1569.82257	0.1044091582
1568.39286	0.1056512594
1566.96315	0.1069200784
1565.53344	0.1081488132
1564.10373	0.1093252227
1562.67401	0.1105197147
1561.24430	0.1118826941
1559.81459	0.1135794520
1558.38488	0.1155968383
1556.95517	0.1176284254
1555.52546	0.1193700731
1554.09575	0.1207715794
1552.66604	0.1219076365
1551.23633	0.1228187531
1549.80662	0.1234864071
1548.37691	0.1238711327
1546.94719	0.1239440292
1545.51748	0.1236702800
1544.08777	0.1229658127
1542.65806	0.1217206717
1541.22835	0.1199847087
1539.79864	0.1181167662
1538.36893	0.1164955050
1536.93922	0.1151670963
1535.50951	0.1139473170
1534.07980	0.1126708165
1532.65009	0.1112932265
1531.22037	0.1098635495
1529.79066	0.1084386930
1528.36095	0.1070233956
1526.93124	0.1055788025
1525.50153	0.1040683910
1524.07182	0.1024937555
1522.64211	0.1008996665
1521.21240	0.0993519500
1519.78269	0.0979001746
1518.35298	0.0965487882
1516.92327	0.0952579752
1515.49356	0.0939722359
1514.06384	0.0926433131
1512.63413	0.0912152231
1511.20442	0.0895820260
1509.77471	0.0875757039
1508.34500	0.0851030722
1506.91529	0.0824310705
1505.48558	0.0801444128
1504.05587	0.0785618052
1502.62616	0.0775171965
1501.19645	0.0766887367
1499.76674	0.0758507922
1498.33702	0.0749341026
1496.90731	0.0740029588
1495.47760	0.0731611028
1494.04789	0.0724462643
1492.61818	0.0718149841
1491.18847	0.0712099671
1489.75876	0.0706239715
1488.32905	0.0701144487
1486.89934	0.0697536841
1485.46963	0.0695662126
1484.03992	0.0695241019
1482.61020	0.0695849583
1481.18049	0.0697202161
1479.75078	0.0699193999
1478.32107	0.0701861605
1476.89136	0.0705375746
1475.46165	0.0710032359
1474.03194	0.0716026276
1472.60223	0.0722982585
1471.17252	0.0729879886
1469.74281	0.0735716298
1468.31310	0.0740087330
1466.88338	0.0743156672
1465.45367	0.0745358095
1464.02396	0.0747131482
1462.59425	0.0748758167
1461.16454	0.0750343055
1459.73483	0.0751936510
1458.30512	0.0753583536
1456.87541	0.0755201280
1455.44570	0.0756467730
1454.01599	0.0757004172
1452.58628	0.0756605193
1451.15656	0.0755215734
1449.72685	0.0752858743
1448.29714	0.0749685615
1446.86743	0.0746034011
1445.43772	0.0742310211
1444.00801	0.0738729239
1442.57830	0.0735173896
1441.14859	0.0731277466
1439.71888	0.0726663172
1438.28917	0.0721242279
1436.85946	0.0715462789
1435.42974	0.0710199773
1434.00003	0.0706224814
1432.57032	0.0703818128
1431.14061	0.0702898055
1429.71090	0.0703303143
1428.28119	0.0704881549
1426.85148	0.0707412213
1425.42177	0.0710581094
1423.99206	0.0714088902
1422.56235	0.0717804134
1421.13264	0.0721833110
1419.70292	0.0726404935
1418.27321	0.0731581375
1416.84350	0.0737089664
1415.41379	0.0742506161
1413.98408	0.0747570843
1412.55437	0.0752273872
1411.12466	0.0756732449
1409.69495	0.0761039481
1408.26524	0.0765189305
1406.83553	0.0769074038
1405.40582	0.0772508159
1403.97610	0.0775260776
1402.54639	0.0777102038
1401.11668	0.0777880773
1399.68697	0.0777575746
1398.25726	0.0776289478
1396.82755	0.0774219260
1395.39784	0.0771601200
1393.96813	0.0768619180
1392.53842	0.0765300468
1391.10871	0.0761481524
1389.67900	0.0756906494
1388.24928	0.0751433894
1386.81957	0.0745231807
1385.38986	0.0738777071
1383.96015	0.0732579529
1382.53044	0.0726894215
1381.10073	0.0721676573
1379.67102	0.0716769621
1378.24131	0.0712085366
1376.81160	0.0707706511
1375.38189	0.0703866258
1373.95218	0.0700839683
1372.52246	0.0698774159
1371.09275	0.0697559640
1369.66304	0.0696855709
1368.23333	0.0696242452
1366.80362	0.0695414469
1365.37391	0.0694302991
1363.94420	0.0693113133
1362.51449	0.0692209229
1361.08478	0.0691911727
1359.65507	0.0692328215
1358.22536	0.0693354234
1356.79565	0.0694785044
1355.36593	0.0696414411
1353.93622	0.0698076412
1352.50651	0.0699638650
1351.07680	0.0700998157
1349.64709	0.0702062100
1348.21738	0.0702758655
1346.78767	0.0703069717
1345.35796	0.0703065172
1343.92825	0.0702902898
1342.49854	0.0702800378
1341.06883	0.0703000277
1339.63911	0.0703712851
1338.20940	0.0705025867
1336.77969	0.0706854090
1335.34998	0.0708988458
1333.92027	0.0711228102
1332.49056	0.0713497028
1331.06085	0.0715843141
1329.63114	0.0718364269
1328.20143	0.0721086413
1326.77172	0.0723927096
1325.34201	0.0726753473
1323.91229	0.0729483664
1322.48258	0.0732147545
1321.05287	0.0734851062
1319.62316	0.0737681463
1318.19345	0.0740630627
1316.76374	0.0743615329
1315.33403	0.0746529475
1313.90432	0.0749323517
1312.47461	0.0752002075
1311.04490	0.0754585266
1309.61519	0.0757052302
1308.18547	0.0759360641
1306.75576	0.0761484280
1305.32605	0.0763454586
1303.89634	0.0765346810
1302.46663	0.0767242610
1301.03692	0.0769197941
1299.60721	0.0771232322
1298.17750	0.0773342624
1296.74779	0.0775482655
1295.31808	0.0777556226
1293.88837	0.0779434144
1292.45865	0.0781011358
1291.02894	0.0782263055
1289.59923	0.0783255324
1288.16952	0.0784104243
1286.73981	0.0784915462
1285.31010	0.0785751417
1283.88039	0.0786639899
1282.45068	0.0787593722
1281.02097	0.0788630396
1279.59126	0.0789774358
1278.16155	0.0791052207
1276.73183	0.0792490095
1275.30212	0.0794136673
1273.87241	0.0796080530
1272.44270	0.0798446536
1271.01299	0.0801365674
1269.58328	0.0804919824
1268.15357	0.0809109360
1266.72386	0.0813871771
1265.29415	0.0819134489
1263.86444	0.0824854001
1262.43473	0.0831025541
1261.00501	0.0837641507
1259.57530	0.0844644606
1258.14559	0.0851902440
1256.71588	0.0859196112
1255.28617	0.0866241306
1253.85646	0.0872702003
1252.42675	0.0878229514
1250.99704	0.0882535130
1249.56733	0.0885449201
1248.13762	0.0886972994
1246.70791	0.0887261927
1245.27819	0.0886532292
1243.84848	0.0884976611
1242.41877	0.0882712156
1240.98906	0.0879805610
1239.55935	0.0876316354
1238.12964	0.0872332379
1236.69993	0.0867943317
1235.27022	0.0863210335
1233.84051	0.0858176500
1232.41080	0.0852919519
1230.98109	0.0847585872
1229.55137	0.0842362046
1228.12166	0.0837396681
1226.69195	0.0832722858
1225.26224	0.0828242004
1223.83253	0.0823782086
1222.40282	0.0819184557
1220.97311	0.0814370438
1219.54340	0.0809371397
1218.11369	0.0804301426
1216.68398	0.0799302459
1215.25427	0.0794482306
1213.82455	0.0789893568
1212.39484	0.0785551295
1210.96513	0.0781483948
1209.53542	0.0777780414
1208.10571	0.0774585307
1206.67600	0.0772050470
1205.24629	0.0770272538
1203.81658	0.0769257545
1202.38687	0.0768957213
1200.95716	0.0769356117
1199.52745	0.0770533085
1198.09774	0.0772640482
1196.66802	0.0775814429
1195.23831	0.0780045614
1193.80860	0.0785152167
1192.37889	0.0790844113
1190.94918	0.0796841159
1189.51947	0.0802963972
1188.08976	0.0809159577
1186.66005	0.0815473720
1185.23034	0.0822021291
1183.80063	0.0828965381
1182.37092	0.0836483613
1180.94120	0.0844724104
1179.51149	0.0853744373
1178.08178	0.0863475874
1176.65207	0.0873742327
1175.22236	0.0884308591
1173.79265	0.0894942209
1172.36294	0.0905464590
1170.93323	0.0915780663
1169.50352	0.0925893635
1168.07381	0.0935888216
1166.64410	0.0945885256
1165.21438	0.0955995694
1163.78467	0.0966287851
1162.35496	0.0976778120
1160.92525	0.0987457037
1159.49554	0.0998306200
1158.06583	0.1009307951
1156.63612	0.1020437777
1155.20641	0.1031657979
1153.77670	0.1042923629
1152.34699	0.1054220647
1150.91728	0.1065584794
1149.48756	0.1077104509
1148.05785	0.1088898629
1146.62814	0.1101085767
1145.19843	0.1113768518
1143.76872	0.1127029285
1142.33901	0.1140948012
1140.90930	0.1155601218
1139.47959	0.1171067953
1138.04988	0.1187424213
1136.62017	0.1204722226
1135.19046	0.1222951785
1133.76074	0.1241995469
1132.33103	0.1261626929
1130.90132	0.1281574517
1129.47161	0.1301627904
1128.04190	0.1321710348
1126.61219	0.1341860145
1125.18248	0.1362134516
1123.75277	0.1382511109
1122.32306	0.1402848959
1120.89335	0.1422929913
1119.46364	0.1442543864
1118.03392	0.1461557895
1116.60421	0.1479965746
1115.17450	0.1497870386
1113.74479	0.1515412480
1112.31508	0.1532655060
1110.88537	0.1549481153
1109.45566	0.1565603167
1108.02595	0.1580681652
1106.59624	0.1594481021
1105.16653	0.1606942117
1103.73682	0.1618109047
1102.30710	0.1628010720
1100.87739	0.1636619270
1099.44768	0.1643914729
1098.01797	0.1649975628
1096.58826	0.1654985249
1095.15855	0.1659136117
1093.72884	0.1662538201
1092.29913	0.1665176749
1090.86942	0.1666930020
1089.43971	0.1667586267
1088.01000	0.1666880250
1086.58028	0.1664568037
1085.15057	0.1660528779
1083.72086	0.1654821932
1082.29115	0.1647616625
1080.86144	0.1639046222
1079.43173	0.1629119813
1078.00202	0.1617762297
1076.57231	0.1604941338
1075.14260	0.1590768844
1073.71289	0.1575486511
1072.28318	0.1559372395
1070.85346	0.1542625427
1069.42375	0.1525296420
1067.99404	0.1507253647
1066.56433	0.1488246471
1065.13462	0.1468018144
1063.70491	0.1446441710
1062.27520	0.1423580498
1060.84549	0.1399630755
1059.41578	0.1374792010
1057.98607	0.1349176168
1056.55636	0.1322832108
1055.12664	0.1295836568
1053.69693	0.1268358678
1052.26722	0.1240659803
1050.83751	0.1213025302
1049.40780	0.1185742021
1047.97809	0.1159105673
1046.54838	0.1133429781
1045.11867	0.1108975932
1043.68896	0.1085863188
1042.25925	0.1064020842
1040.82954	0.1043267921
1039.39983	0.1023450121
1037.97011	0.1004528999
1036.54040	0.0986564457
1035.11069	0.0969615206
1033.68098	0.0953676477
1032.25127	0.0938689187
1030.82156	0.0924596637
1029.39185	0.0911388993
1027.96214	0.0899097919
1026.53243	0.0887756944
1025.10272	0.0877377242
1023.67301	0.0867960975
1022.24329	0.0859559253
1020.81358	0.0852326974
1019.38387	0.0846540704
1017.95416	0.0842536166
1016.52445	0.0840588361
1015.09474	0.0840786919
1013.66503	0.0843003541
1012.23532	0.0846967921
1010.80561	0.0852413625
1009.37590	0.0859213099
1007.94619	0.0867400244
1006.51647	0.0877075270
1005.08676	0.0888257846
1003.65705	0.0900765732
1002.22734	0.0914214179
1000.79763	0.0928103775
999.36792	0.0941947922
997.93821	0.0955341458
996.50850	0.0967952535
995.07879	0.0979454145
993.64908	0.0989467278
992.21937	0.0997564495
990.78965	0.1003329009
989.35994	0.1006442755
987.93023	0.1006758064
986.50052	0.1004335582
985.07081	0.0999423042
983.64110	0.0992374942
982.21139	0.0983541235
980.78168	0.0973167345
979.35197	0.0961365774
977.92226	0.0948193222
976.49255	0.0933758467
975.06283	0.0918303952
973.63312	0.0902196094
972.20341	0.0885839909
970.77370	0.0869578272
969.34399	0.0853649229
967.91428	0.0838197842
966.48457	0.0823327750
965.05486	0.0809137151
963.62515	0.0795730427
962.19544	0.0783211589
960.76573	0.0771686211
959.33601	0.0761280358
957.90630	0.0752147362
956.47659	0.0744430423
955.04688	0.0738190413
953.61717	0.0733337402
952.18746	0.0729633346
950.75775	0.0726786479
949.32804	0.0724564493
947.89833	0.0722835809
946.46862	0.0721527413
945.03891	0.0720544904
943.60919	0.0719762370
942.17948	0.0719080865
940.74977	0.0718457997
939.32006	0.0717876554
937.89035	0.0717252940
936.46064	0.0716416091
935.03093	0.0715191737
933.60122	0.0713517740
932.17151	0.0711482763
930.74180	0.0709248409
929.31209	0.0706953406
927.88237	0.0704686716
926.45266	0.0702505484
925.02295	0.0700464025
923.59324	0.0698562190
922.16353	0.0696704984
920.73382	0.0694732144
919.30411	0.0692515224
917.87440	0.0690027252
916.44469	0.0687318146
915.01498	0.0684430972
913.58527	0.0681367069
912.15555	0.0678135529
910.72584	0.0674850494
909.29613	0.0671768188
907.86642	0.0669225380
906.43671	0.0667517036
905.00700	0.0666804686
903.57729	0.0667084157
902.14758	0.0668213814
900.71787	0.0669962242
899.28816	0.0672094226
897.85845	0.0674479753
896.42873	0.0677174851
894.99902	0.0680430830
893.56931	0.0684550405
892.13960	0.0689684674
890.70989	0.0695690662
889.28018	0.0702159479
887.85047	0.0708607808
886.42076	0.0714676008
884.99105	0.0720211864
883.56134	0.0725240484
882.13163	0.0729864910
880.70192	0.0734206960
879.27220	0.0738365650
877.84249	0.0742392242
876.41278	0.0746266693
874.98307	0.0749922469
873.55336	0.0753303915
872.12365	0.0756432638
870.69394	0.0759383142
869.26423	0.0762191042
867.83452	0.0764731839
866.40481	0.0766696483
864.97510	0.0767697915
863.54538	0.0767438412
862.11567	0.0765852854
860.68596	0.0763110518
859.25625	0.0759489238
857.82654	0.0755213276
856.39683	0.0750364885
854.96712	0.0744930357
853.53741	0.0738926828
852.10770	0.0732523799
850.67799	0.0726023391
849.24828	0.0719724521
847.81856	0.0713753924
846.38885	0.0708008111
844.95914	0.0702266917
843.52943	0.0696411133
842.09972	0.0690582916
840.67001	0.0685141087
839.24030	0.0680432022
837.81059	0.0676545352
836.38088	0.0673232153
834.95117	0.0670058876
833.52146	0.0666656792
832.09174	0.0662869588
830.66203	0.0658707842
829.23232	0.0654217526
827.80261	0.0649422854
826.37290	0.0644405782
824.94319	0.0639411956
823.51348	0.0634840280
822.08377	0.0631050169
820.65406	0.0628152862
819.22435	0.0625934079
817.79464	0.0624014400
816.36492	0.0622102730
814.93521	0.0620167404
813.50550	0.0618413500
812.07579	0.0617086701
810.64608	0.0616294593
809.21637	0.0615945235
807.78666	0.0615830086
806.35695	0.0615759119
804.92724	0.0615625195
803.49753	0.0615402982
802.06782	0.0615090989
800.63810	0.0614697337
799.20839	0.0614255667
797.77868	0.0613838248
796.34897	0.0613529645
794.91926	0.0613388345
793.48955	0.0613422915
792.05984	0.0613641478
790.63013	0.0614119396
789.20042	0.0615019724
787.77071	0.0616499223
786.34100	0.0618543364
784.91128	0.0620833039
783.48157	0.0622803904
782.05186	0.0623890385
780.62215	0.0623833016
779.19244	0.0622831695
777.76273	0.0621436015
776.33302	0.0620256402
774.90331	0.0619683117
773.47360	0.0619779564
772.04389	0.0620346852
770.61418	0.0621081181
769.18446	0.0621718876
767.75475	0.0622129627
766.32504	0.0622349791
764.89533	0.0622531436
763.46562	0.0622846037
762.03591	0.0623391010
760.60620	0.0624177270
759.17649	0.0625182763
757.74678	0.0626420006
756.31707	0.0627920777
754.88736	0.0629657209
753.45764	0.0631472543
752.02793	0.0633091256
750.59822	0.0634245053
749.16851	0.0634799823
747.73880	0.0634827390
746.30909	0.0634563789
744.87938	0.0634292960
743.44967	0.0634213239
742.01996	0.0634362772
740.59025	0.0634629056
739.16054	0.0634851381
737.73082	0.0634961650
736.30111	0.0635074303
734.87140	0.0635484159
733.44169	0.0636530370
732.01198	0.0638442412
730.58227	0.0641221181
729.15256	0.0644628927
727.72285	0.0648283660
726.29314	0.0651812181
724.86343	0.0654985905
723.43372	0.0657789707
722.00401	0.0660390407
720.57429	0.0663009211
719.14458	0.0665774420
717.71487	0.0668648630
716.28516	0.0671499893
714.85545	0.0674238503
713.42574	0.0676897466
711.99603	0.0679583773
710.56632	0.0682347119
709.13661	0.0685098320
707.70690	0.0687623546
706.27719	0.0689702630
704.84747	0.0691216886
703.41776	0.0692198277
701.98805	0.0692798495
700.55834	0.0693213344
699.12863	0.0693595335
697.69892	0.0693984330
696.26921	0.0694278702
694.83950	0.0694275051
693.40979	0.0693800300
691.98008	0.0692891777
690.55037	0.0691892877
689.12065	0.0691348612
687.69094	0.0691686198
686.26123	0.0692912713
684.83152	0.0694564804
683.40181	0.0696010888
681.97210	0.0696867555
680.54239	0.0697166920
679.11268	0.0697152317
677.68297	0.0696940199
676.25326	0.0696442127
674.82355	0.0695618913
673.39383	0.0694783479
671.96412	0.0694649220
670.53441	0.0696031898
669.10470	0.0699170306
667.67499	0.0703127831
666.24528	0.0706357881
664.81557	0.0708121806
663.38586	0.0708779991
661.95615	0.0708993301
660.52644	0.0709107891
659.09673	0.0709081069
657.66701	0.0708752573
656.23730	0.0708186701
654.80759	0.0707764402
653.37788	0.0707895383
651.94817	0.0708657801
650.51846	0.0709705278
649.08875	0.0710544512
647.65904	0.0710917711
646.22933	0.0710914358
644.79962	0.0710729882
643.36991	0.0710362568
641.94019	0.0709577277
640.51048	0.0708172694
639.08077	0.0706269592
637.65106	0.0704322904
636.22135	0.0702843890
634.79164	0.0702030510
633.36193	0.0701606646
631.93222	0.0700944066
630.50251	0.0699349716
629.07280	0.0696328431
627.64309	0.0691739321
626.21337	0.0685837641
624.78366	0.0679236278
623.35395	0.0672744587
621.92424	0.0667113811
620.49453	0.0662752911
619.06482	0.0659596622
617.63511	0.0657199994
616.20540	0.0655051246
614.77569	0.0652902573
613.34598	0.0650857911
611.91627	0.0649133027
610.48655	0.0647726804
609.05684	0.0646395534
607.62713	0.0645026192
606.19742	0.0644022673
604.76771	0.0644225925
603.33800	0.0646354035
601.90829	0.0650428161
600.47858	0.0655651465
599.04887	0.0660796613
