3997.47168	0.0281175319
3996.04197	0.0280846413
3994.61226	0.0280595385
3993.18255	0.0280529112
3991.75284	0.0280743130
3990.32312	0.0281266179
3988.89341	0.0282024369
3987.46370	0.0282825213
3986.03399	0.0283422843
3984.60428	0.0283615720
3983.17457	0.0283361785
3981.74486	0.0282786265
3980.31515	0.0282099210
3978.88544	0.0281490441
3977.45573	0.0281079207
3976.02602	0.0280926768
3974.59630	0.0281058494
3973.16659	0.0281435214
3971.73688	0.0281935968
3970.30717	0.0282398108
3968.87746	0.0282692872
3967.44775	0.0282798409
3966.01804	0.0282783769
3964.58833	0.0282739569
3963.15862	0.0282747298
3961.72891	0.0282858089
3960.29920	0.0283085480
3958.86948	0.0283379182
3957.43977	0.0283601619
3956.01006	0.0283595268
3954.58035	0.0283285528
3953.15064	0.0282752551
3951.72093	0.0282185134
3950.29122	0.0281753112
3948.86151	0.0281483810
3947.43180	0.0281271432
3946.00209	0.0280999951
3944.57238	0.0280683488
3943.14266	0.0280509517
3941.71295	0.0280702803
3940.28324	0.0281367544
3938.85353	0.0282387342
3937.42382	0.0283495523
3935.99411	0.0284429863
3934.56440	0.0285030752
3933.13469	0.0285269581
3931.70498	0.0285183620
3930.27527	0.0284837820
3928.84556	0.0284302998
3927.41585	0.0283696968
3925.98613	0.0283162836
3924.55642	0.0282819960
3923.12671	0.0282689556
3921.69700	0.0282696187
3920.26729	0.0282750893
3918.83758	0.0282829087
3917.40787	0.0282990709
3915.97816	0.0283307619
3914.54845	0.0283772405
3913.11874	0.0284258239
3911.68903	0.0284534059
3910.25931	0.0284345020
3908.82960	0.0283499397
3907.39989	0.0281971600
3905.97018	0.0280013066
3904.54047	0.0278164688
3903.11076	0.0277102571
3901.68105	0.0277209617
3900.25134	0.0278272051
3898.82163	0.0279638413
3897.39192	0.0280717723
3895.96221	0.0281255413
3894.53249	0.0281327777
3893.10278	0.0281208735
3891.67307	0.0281212330
3890.24336	0.0281533264
3888.81365	0.0282122977
3887.38394	0.0282739289
3885.95423	0.0283109508
3884.52452	0.0283102337
3883.09481	0.0282817204
3881.66510	0.0282492861
3880.23539	0.0282278769
3878.80567	0.0282085408
3877.37596	0.0281650908
3875.94625	0.0280786492
3874.51654	0.0279596169
3873.08683	0.0278506372
3871.65712	0.0278025325
3870.22741	0.0278348494
3868.79770	0.0279186498
3867.36799	0.0280058347
3865.93828	0.0280700885
3864.50857	0.0281141903
3863.07885	0.0281418078
3861.64914	0.0281349868
3860.21943	0.0280617215
3858.78972	0.0279016178
3857.36001	0.0276736449
3855.93030	0.0274624731
3854.50059	0.0274168644
3853.07088	0.0276430771
3851.64117	0.0280537959
3850.21146	0.0284405816
3848.78175	0.0286720563
3847.35203	0.0287322048
3845.92232	0.0286596678
3844.49261	0.0285079125
3843.06290	0.0283348523
3841.63319	0.0282022972
3840.20348	0.0281671081
3838.77377	0.0282571875
3837.34406	0.0284452531
3835.91435	0.0286588930
3834.48464	0.0288286805
3833.05493	0.0289237667
3831.62521	0.0289485864
3830.19550	0.0289194230
3828.76579	0.0288519450
3827.33608	0.0287611615
3825.90637	0.0286674928
3824.47666	0.0285949111
3823.04695	0.0285608787
3821.61724	0.0285690892
3820.18753	0.0286134630
3818.75782	0.0286914408
3817.32811	0.0288024843
3815.89839	0.0289319847
3814.46868	0.0290468279
3813.03897	0.0291116498
3811.60926	0.0291088000
3810.17955	0.0290430356
3808.74984	0.0289366618
3807.32013	0.0288210455
3805.89042	0.0287310705
3804.46071	0.0286984090
3803.03100	0.0287446212
3801.60129	0.0288736895
3800.17157	0.0290683322
3798.74186	0.0292939935
3797.31215	0.0295147300
3795.88244	0.0297045317
3794.45273	0.0298468620
3793.02302	0.0299299415
3791.59331	0.0299482178
3790.16360	0.0299086701
3788.73389	0.0298355483
3787.30418	0.0297664590
3785.87447	0.0297374893
3784.44475	0.0297670402
3783.01504	0.0298524629
3781.58533	0.0299768392
3780.15562	0.0301194526
3778.72591	0.0302543137
3777.29620	0.0303522684
3775.86649	0.0303903837
3774.43678	0.0303647034
3773.00707	0.0302960016
3771.57736	0.0302199572
3770.14765	0.0301685650
3768.71794	0.0301506389
3767.28822	0.0301490296
3765.85851	0.0301405955
3764.42880	0.0301174279
3762.99909	0.0300890729
3761.56938	0.0300698765
3760.13967	0.0300633013
3758.70996	0.0300507899
3757.28025	0.0299989171
3755.85054	0.0298812445
3754.42083	0.0297064446
3752.99112	0.0295284986
3751.56140	0.0294293463
3750.13169	0.0294661894
3748.70198	0.0296338275
3747.27227	0.0298919771
3745.84256	0.0302112699
3744.41285	0.0305639878
3742.98314	0.0308939219
3741.55343	0.0311324354
3740.12372	0.0312420204
3738.69401	0.0312360115
3737.26430	0.0311686732
3735.83458	0.0311124418
3734.40487	0.0311219525
3732.97516	0.0311991014
3731.54545	0.0313053094
3730.11574	0.0314051397
3728.68603	0.0314881280
3727.25632	0.0315669030
3725.82661	0.0316685215
3724.39690	0.0318191573
3722.96719	0.0320221744
3721.53748	0.0322476476
3720.10776	0.0324485786
3718.67805	0.0325870924
3717.24834	0.0326482058
3715.81863	0.0326426513
3714.38892	0.0326124877
3712.95921	0.0326340571
3711.52950	0.0327841043
3710.09979	0.0330670103
3708.67008	0.0333916992
3707.24037	0.0336576849
3705.81066	0.0338380560
3704.38094	0.0339810215
3702.95123	0.0341609940
3701.52152	0.0344223268
3700.09181	0.0347439311
3698.66210	0.0350575000
3697.23239	0.0352992937
3695.80268	0.0354515575
3694.37297	0.0355544277
3692.94326	0.0356989987
3691.51355	0.0359934568
3690.08384	0.0364867561
3688.65412	0.0370935462
3687.22441	0.0376451202
3685.79470	0.0380309410
3684.36499	0.0382496603
3682.93528	0.0383560807
3681.50557	0.0384116173
3680.07586	0.0384808518
3678.64615	0.0386438854
3677.21644	0.0389861055
3675.78673	0.0395452194
3674.35702	0.0402759686
3672.92730	0.0410963260
3671.49759	0.0419605412
3670.06788	0.0428561643
3668.63817	0.0437563322
3667.20846	0.0446162522
3665.77875	0.0454107411
3664.34904	0.0461515486
3662.91933	0.0468683355
3661.48962	0.0475821495
3660.05991	0.0483005792
3658.63020	0.0490243435
3657.20048	0.0497511178
3655.77077	0.0504745990
3654.34106	0.0512019433
3652.91135	0.0519908108
3651.48164	0.0529660396
3650.05193	0.0542488024
3648.62222	0.0557954274
3647.19251	0.0573567711
3645.76280	0.0587083809
3644.33309	0.0598291755
3642.90338	0.0608275458
3641.47366	0.0618117154
3640.04395	0.0628347024
3638.61424	0.0638946816
3637.18453	0.0649550930
3635.75482	0.0659740046
3634.32511	0.0669455752
3632.89540	0.0679429397
3631.46569	0.0691243336
3630.03598	0.0706331432
3628.60627	0.0724112466
3627.17656	0.0741688013
3625.74684	0.0756430179
3624.31713	0.0768046379
3622.88742	0.0777966231
3621.45771	0.0787893534
3620.02800	0.0798866525
3618.59829	0.0810942352
3617.16858	0.0823471099
3615.73887	0.0835795105
3614.30916	0.0847768635
3612.87945	0.0859809443
3611.44974	0.0872571617
3610.02003	0.0886428431
3608.59031	0.0901012570
3607.16060	0.0915350169
3605.73089	0.0928560570
3604.30118	0.0940418541
3602.87147	0.0951286033
3601.44176	0.0961737856
3600.01205	0.0972303376
3598.58234	0.0983379260
3597.15263	0.0995108411
3595.72292	0.1007183641
3594.29321	0.1018939093
3592.86349	0.1029933915
3591.43378	0.1040544435
3590.00407	0.1051909402
3588.57436	0.1065051481
3587.14465	0.1079782993
3585.71494	0.1094581559
3584.28523	0.1107849926
3582.85552	0.1119123027
3581.42581	0.1129063293
3579.99610	0.1138742268
3578.56639	0.1148981526
3577.13667	0.1159969792
3575.70696	0.1171211004
3574.27725	0.1181919277
3572.84754	0.1191703677
3571.41783	0.1201054156
3569.98812	0.1211244464
3568.55841	0.1223534644
3567.12870	0.1238035485
3565.69899	0.1253329962
3564.26928	0.1267602593
3562.83957	0.1280042529
3561.40985	0.1290983409
3559.98014	0.1301165819
3558.55043	0.1311206073
3557.12072	0.1321507841
3555.69101	0.1332308352
3554.26130	0.1343643367
3552.83159	0.1355327070
3551.40188	0.1367095411
3549.97217	0.1378834546
3548.54246	0.1390650868
3547.11275	0.1402681023
3545.68303	0.1414827704
3544.25332	0.1426759064
3542.82361	0.1438153237
3541.39390	0.1448954344
3539.96419	0.1459383816
3538.53448	0.1469731331
3537.10477	0.1480114907
3535.67506	0.1490390152
3534.24535	0.1500291228
3532.81564	0.1509728432
3531.38593	0.1518968642
3529.95621	0.1528518349
3528.52650	0.1538789719
3527.09679	0.1549823731
3525.66708	0.1561312973
3524.23737	0.1572850794
3522.80766	0.1584120840
3521.37795	0.1594923586
3519.94824	0.1605132669
3518.51853	0.1614718288
3517.08882	0.1623777598
3515.65911	0.1632518023
3514.22939	0.1641167849
3512.79968	0.1649957746
3511.36997	0.1659087241
3509.94026	0.1668644547
3508.51055	0.1678517759
3507.08084	0.1688439399
3505.65113	0.1698202044
3504.22142	0.1707801372
3502.79171	0.1717360914
3501.36200	0.1726924926
3499.93229	0.1736399978
3498.50257	0.1745710820
3497.07286	0.1754931062
3495.64315	0.1764197499
3494.21344	0.1773512512
3492.78373	0.1782676876
3491.35402	0.1791434139
3489.92431	0.1799612790
3488.49460	0.1807167083
3487.06489	0.1814190894
3485.63518	0.1820982844
3484.20547	0.1828029454
3482.77575	0.1835756600
3481.34604	0.1844166368
3479.91633	0.1852766722
3478.48662	0.1860941648
3477.05691	0.1868412942
3475.62720	0.1875337660
3474.19749	0.1882050186
3472.76778	0.1888772696
3471.33807	0.1895580590
3469.90836	0.1902508289
3468.47865	0.1909569651
3467.04893	0.1916672587
3465.61922	0.1923624277
3464.18951	0.1930270791
3462.75980	0.1936624497
3461.33009	0.1942819059
3459.90038	0.1948978305
3458.47067	0.1955159605
3457.04096	0.1961359531
3455.61125	0.1967497170
3454.18154	0.1973373443
3452.75183	0.1978768557
3451.32212	0.1983669996
3449.89240	0.1988392621
3448.46269	0.1993400902
3447.03298	0.1998930871
3445.60327	0.2004826814
3444.17356	0.2010723948
3442.74385	0.2016360760
3441.31414	0.2021674812
3439.88443	0.2026668787
3438.45472	0.2031305730
3437.02501	0.2035545409
3435.59530	0.2039453983
3434.16558	0.2043181658
3432.73587	0.2046861202
3431.30616	0.2050545365
3429.87645	0.2054227293
3428.44674	0.2057881653
3427.01703	0.2061478794
3425.58732	0.2064992934
3424.15761	0.2068434656
3422.72790	0.2071854472
3421.29819	0.2075290680
3419.86848	0.2078723013
3418.43876	0.2082104087
3417.00905	0.2085424960
3415.57934	0.2088690698
3414.14963	0.2091848701
3412.71992	0.2094754726
3411.29021	0.2097297013
3409.86050	0.2099535465
3408.43079	0.2101689428
3407.00108	0.2103958428
3405.57137	0.2106371075
3404.14166	0.2108796388
3402.71194	0.2111058980
3401.28223	0.2113018185
3399.85252	0.2114598453
3398.42281	0.2115837485
3396.99310	0.2116923034
3395.56339	0.2118136138
3394.13368	0.2119640559
3392.70397	0.2121300399
3391.27426	0.2122745067
3389.84455	0.2123659402
3388.41484	0.2124037594
3386.98512	0.2124197930
3385.55541	0.2124546319
3384.12570	0.2125322372
3382.69599	0.2126491368
3381.26628	0.2127821743
3379.83657	0.2129074633
3378.40686	0.2130168527
3376.97715	0.2131248415
3375.54744	0.2132589072
3374.11773	0.2134369761
3372.68802	0.2136510164
3371.25830	0.2138677984
3369.82859	0.2140486091
3368.39888	0.2141715586
3366.96917	0.2142393887
3365.53946	0.2142719030
3364.10975	0.2142911106
3362.68004	0.2143095136
3361.25033	0.2143284678
3359.82062	0.2143456042
3358.39091	0.2143657357
3356.96120	0.2144052684
3355.53148	0.2144811004
3354.10177	0.2145957351
3352.67206	0.2147294432
3351.24235	0.2148531377
3349.81264	0.2149489671
3348.38293	0.2150226384
3346.95322	0.2150953114
3345.52351	0.2151866108
3344.09380	0.2153027058
3342.66409	0.2154350579
3341.23438	0.2155651599
3339.80466	0.2156704664
3338.37495	0.2157334238
3336.94524	0.2157531977
3335.51553	0.2157509476
3334.08582	0.2157628536
3332.65611	0.2158220410
3331.22640	0.2159437388
3329.79669	0.2161229104
3328.36698	0.2163401991
3326.93727	0.2165702581
3325.50756	0.2167873830
3324.07784	0.2169714421
3322.64813	0.2171161622
3321.21842	0.2172320038
3319.78871	0.2173431814
3318.35900	0.2174792290
3316.92929	0.2176683992
3315.49958	0.2179314047
3314.06987	0.2182772607
3312.64016	0.2186972350
3311.21045	0.2191614211
3309.78074	0.2196197212
3308.35102	0.2200134248
3306.92131	0.2202924490
3305.49160	0.2204354554
3304.06189	0.2204632014
3302.63218	0.2204356343
3301.20247	0.2204271555
3299.77276	0.2204900384
3298.34305	0.2206270397
3296.91334	0.2207924426
3295.48363	0.2209209800
3294.05392	0.2209613174
3292.62421	0.2208929956
3291.19449	0.2207231671
3289.76478	0.2204739451
3288.33507	0.2201709896
3286.90536	0.2198382169
3285.47565	0.2194963843
3284.04594	0.2191599756
3282.61623	0.2188355178
3281.18652	0.2185215801
3279.75681	0.2182113230
3278.32710	0.2178941965
3276.89739	0.2175530046
3275.46767	0.2171590179
3274.03796	0.2166722268
3272.60825	0.2160536945
3271.17854	0.2152862549
3269.74883	0.2143901736
3268.31912	0.2134183645
3266.88941	0.2124320865
3265.45970	0.2114749700
3264.02999	0.2105609328
3262.60028	0.2096851021
3261.17057	0.2088385075
3259.74085	0.2080149502
3258.31114	0.2072052211
3256.88143	0.2063928246
3255.45172	0.2055609673
3254.02201	0.2047049850
3252.59230	0.2038378119
3251.16259	0.2029826492
3249.73288	0.2021588236
3248.30317	0.2013752311
3246.87346	0.2006310970
3245.44375	0.1999206841
3244.01403	0.1992366165
3242.58432	0.1985720247
3241.15461	0.1979248226
3239.72490	0.1973010451
3238.29519	0.1967118829
3236.86548	0.1961631179
3235.43577	0.1956451833
3234.00606	0.1951327026
3232.57635	0.1945975870
3231.14664	0.1940245032
3229.71693	0.1934185773
3228.28721	0.1927986592
3226.85750	0.1921857893
3225.42779	0.1915930510
3223.99808	0.1910253167
3222.56837	0.1904843599
3221.13866	0.1899708658
3219.70895	0.1894810945
3218.27924	0.1890021712
3216.84953	0.1885155588
3215.41982	0.1880061924
3213.99011	0.1874711812
3212.56039	0.1869217753
3211.13068	0.1863734275
3209.70097	0.1858356595
3208.27126	0.1853072047
3206.84155	0.1847790778
3205.41184	0.1842391938
3203.98213	0.1836792529
3202.55242	0.1830967367
3201.12271	0.1824979037
3199.69300	0.1818961650
3198.26329	0.1813056618
3196.83357	0.1807330400
3195.40386	0.1801732033
3193.97415	0.1796129793
3192.54444	0.1790378988
3191.11473	0.1784382612
3189.68502	0.1778095216
3188.25531	0.1771546006
3186.82560	0.1764843762
3185.39589	0.1758196056
3183.96618	0.1751835644
3182.53647	0.1745897681
3181.10675	0.1740312874
3179.67704	0.1734823436
3178.24733	0.1729120314
3176.81762	0.1723019630
3175.38791	0.1716540605
3173.95820	0.1709847003
3172.52849	0.1703106314
3171.09878	0.1696389765
3169.66907	0.1689682901
3168.23936	0.1682968140
3166.80965	0.1676290631
3165.37993	0.1669730246
3163.95022	0.1663334668
3162.52051	0.1657069027
3161.09080	0.1650856435
3159.66109	0.1644638181
3158.23138	0.1638413817
3156.80167	0.1632191986
3155.37196	0.1625927538
3153.94225	0.1619508415
3152.51254	0.1612811089
3151.08283	0.1605802923
3149.65311	0.1598605216
3148.22340	0.1591489911
3146.79369	0.1584797204
3145.36398	0.1578775644
3143.93427	0.1573424935
3142.50456	0.1568440497
3141.07485	0.1563337147
3139.64514	0.1557702422
3138.21543	0.1551433653
3136.78572	0.1544779092
3135.35601	0.1538168192
3133.92629	0.1531952620
3132.49658	0.1526237428
3131.06687	0.1520904750
3129.63716	0.1515764743
3128.20745	0.1510705203
3126.77774	0.1505734324
3125.34803	0.1500931531
3123.91832	0.1496352851
3122.48861	0.1491969526
3121.05890	0.1487655044
3119.62919	0.1483216435
3118.19948	0.1478454024
3116.76976	0.1473249197
3115.34005	0.1467624009
3113.91034	0.1461751759
3112.48063	0.1455875039
3111.05092	0.1450193673
3109.62121	0.1444799751
3108.19150	0.1439707130
3106.76179	0.1434915811
3105.33208	0.1430427432
3103.90237	0.1426192373
3102.47266	0.1422067881
3101.04294	0.1417869329
3099.61323	0.1413509101
3098.18352	0.1409099698
3096.75381	0.1404886544
3095.32410	0.1401076615
3093.89439	0.1397683620
3092.46468	0.1394529790
3091.03497	0.1391381472
3089.60526	0.1388101429
3088.17555	0.1384697556
3086.74584	0.1381269991
3085.31612	0.1377895623
3083.88641	0.1374531239
3082.45670	0.1370986700
3081.02699	0.1366973072
3079.59728	0.1362245381
3078.16757	0.1356753558
3076.73786	0.1350730062
3075.30815	0.1344633996
3073.87844	0.1338963956
3072.44873	0.1334030181
3071.01902	0.1329805702
3069.58930	0.1325933188
3068.15959	0.1321900934
3066.72988	0.1317287236
3065.30017	0.1311959475
3063.87046	0.1306101829
3062.44075	0.1300087720
3061.01104	0.1294266880
3059.58133	0.1288817227
3058.15162	0.1283706576
3056.72191	0.1278755814
3055.29220	0.1273742467
3053.86248	0.1268498003
3052.43277	0.1262967587
3051.00306	0.1257236451
3049.57335	0.1251478791
3048.14364	0.1245857924
3046.71393	0.1240405589
3045.28422	0.1234983802
3043.85451	0.1229367107
3042.42480	0.1223418042
3040.99509	0.1217200235
3039.56538	0.1210954040
3038.13566	0.1204910129
3036.70595	0.1199124083
3035.27624	0.1193441451
3033.84653	0.1187668890
3032.41682	0.1181770489
3030.98711	0.1175915301
3029.55740	0.1170336828
3028.12769	0.1165140569
3026.69798	0.1160234883
3025.26827	0.1155442819
3023.83856	0.1150647253
3022.40884	0.1145856231
3020.97913	0.1141149327
3019.54942	0.1136591807
3018.11971	0.1132189184
3016.69000	0.1127885431
3015.26029	0.1123582497
3013.83058	0.1119145453
3012.40087	0.1114461049
3010.97116	0.1109517366
3009.54145	0.1104465723
3008.11174	0.1099596992
3006.68202	0.1095227748
3005.25231	0.1091565415
3003.82260	0.1088636890
3002.39289	0.1086316258
3000.96318	0.1084412485
2999.53347	0.1082769707
2998.10376	0.1081315130
2996.67405	0.1080036610
2995.24434	0.1078927666
2993.81463	0.1077941507
2992.38492	0.1077015251
2990.95520	0.1076142639
2989.52549	0.1075440869
2988.09578	0.1075136811
2986.66607	0.1075456440
2985.23636	0.1076495796
2983.80665	0.1078156531
2982.37694	0.1080206558
2980.94723	0.1082402021
2979.51752	0.1084604263
2978.08781	0.1086816937
2976.65810	0.1089149788
2975.22838	0.1091726869
2973.79867	0.1094607860
2972.36896	0.1097747162
2970.93925	0.1101011410
2969.50954	0.1104214340
2968.07983	0.1107149422
2966.65012	0.1109603196
2965.22041	0.1111358851
2963.79070	0.1112212241
2962.36099	0.1112006903
2960.93128	0.1110681519
2959.50157	0.1108272225
2958.07185	0.1104859337
2956.64214	0.1100513116
2955.21243	0.1095299721
2953.78272	0.1089395955
2952.35301	0.1083197892
2950.92330	0.1077304557
2949.49359	0.1072304472
2948.06388	0.1068514064
2946.63417	0.1065851152
2945.20446	0.1063974872
2943.77475	0.1062555984
2942.34503	0.1061479300
2940.91532	0.1060838103
2939.48561	0.1060772389
2938.05590	0.1061322019
2936.62619	0.1062369198
2935.19648	0.1063661054
2933.76677	0.1064843088
2932.33706	0.1065507382
2930.90735	0.1065302566
2929.47764	0.1064058244
2928.04793	0.1061849222
2926.61821	0.1058920473
2925.18850	0.1055514365
2923.75879	0.1051722765
2922.32908	0.1047447473
2920.89937	0.1042479724
2919.46966	0.1036584824
2918.03995	0.1029591709
2916.61024	0.1021436229
2915.18053	0.1012212858
2913.75082	0.1002191305
2912.32111	0.0991808251
2910.89139	0.0981591791
2909.46168	0.0972040445
2908.03197	0.0963476449
2906.60226	0.0955960825
2905.17255	0.0949316546
2903.74284	0.0943265185
2902.31313	0.0937591717
2900.88342	0.0932225585
2899.45371	0.0927172750
2898.02400	0.0922410637
2896.59429	0.0917854607
2895.16457	0.0913421214
2893.73486	0.0909127370
2892.30515	0.0905106142
2890.87544	0.0901532471
2889.44573	0.0898524225
2888.01602	0.0896117762
2886.58631	0.0894281566
2885.15660	0.0892966688
2883.72689	0.0892113075
2882.29718	0.0891650245
2880.86747	0.0891502127
2879.43775	0.0891561881
2878.00804	0.0891634971
2876.57833	0.0891386122
2875.14862	0.0890382454
2873.71891	0.0888222903
2872.28920	0.0884722397
2870.85949	0.0880014226
2869.42978	0.0874510035
2868.00007	0.0868754536
2866.57036	0.0863259286
2865.14065	0.0858376846
2863.71093	0.0854257047
2862.28122	0.0850858465
2860.85151	0.0848011598
2859.42180	0.0845488310
2857.99209	0.0843049437
2856.56238	0.0840463042
2855.13267	0.0837478861
2853.70296	0.0833824277
2852.27325	0.0829225108
2850.84354	0.0823490173
2849.41383	0.0816612914
2847.98411	0.0808827803
2846.55440	0.0800604597
2845.12469	0.0792526752
2843.69498	0.0785096958
2842.26527	0.0778560117
2840.83556	0.0772852972
2839.40585	0.0767719820
2837.97614	0.0762911141
2836.54643	0.0758331940
2835.11672	0.0754049122
2833.68701	0.0750169829
2832.25729	0.0746731758
2830.82758	0.0743655562
2829.39787	0.0740799159
2827.96816	0.0738037005
2826.53845	0.0735308230
2825.10874	0.0732627362
2823.67903	0.0730047971
2822.24932	0.0727608502
2820.81961	0.0725299492
2819.38990	0.0723061711
2817.96019	0.0720827579
2816.53047	0.0718579292
2815.10076	0.0716355070
2813.67105	0.0714216456
2812.24134	0.0712184757
2810.81163	0.0710210130
2809.38192	0.0708192140
2807.95221	0.0706044510
2806.52250	0.0703739896
2805.09279	0.0701346546
2803.66308	0.0698982701
2802.23337	0.0696750879
2800.80366	0.0694657713
2799.37394	0.0692614838
2797.94423	0.0690537393
2796.51452	0.0688444823
2795.08481	0.0686453357
2793.65510	0.0684642494
2792.22539	0.0682915375
2790.79568	0.0681013688
2789.36597	0.0678725615
2787.93626	0.0676081926
2786.50655	0.0673361495
2785.07684	0.0670891106
2783.64712	0.0668815598
2782.21741	0.0667049512
2780.78770	0.0665414184
2779.35799	0.0663785189
2777.92828	0.0662117004
2776.49857	0.0660363883
2775.06886	0.0658422261
2773.63915	0.0656202734
2772.20944	0.0653723702
2770.77973	0.0651145950
2769.35002	0.0648674667
2767.92030	0.0646435171
2766.49059	0.0644400418
2765.06088	0.0642450303
2763.63117	0.0640472621
2762.20146	0.0638446361
2760.77175	0.0636427850
2759.34204	0.0634495765
2757.91233	0.0632687882
2756.48262	0.0630994439
2755.05291	0.0629381612
2753.62320	0.0627820864
2752.19348	0.0626271367
2750.76377	0.0624663867
2749.33406	0.0622907579
2747.90435	0.0620951280
2746.47464	0.0618841834
2745.04493	0.0616715550
2743.61522	0.0614717305
2742.18551	0.0612896755
2740.75580	0.0611163676
2739.32609	0.0609353259
2737.89638	0.0607341155
2736.46666	0.0605130903
2735.03695	0.0602860786
2733.60724	0.0600719377
2732.17753	0.0598852709
2730.74782	0.0597297810
2729.31811	0.0595975332
2727.88840	0.0594735816
2726.45869	0.0593396313
2725.02898	0.0591809861
2723.59927	0.0589895397
2722.16956	0.0587672368
2720.73984	0.0585256442
2719.31013	0.0582808107
2717.88042	0.0580463856
2716.45071	0.0578293838
2715.02100	0.0576285422
2713.59129	0.0574375130
2712.16158	0.0572486930
2710.73187	0.0570564158
2709.30216	0.0568586737
2707.87245	0.0566591956
2706.44274	0.0564647876
2705.01302	0.0562824048
2703.58331	0.0561156496
2702.15360	0.0559638292
2700.72389	0.0558229201
2699.29418	0.0556868874
2697.86447	0.0555482469
2696.43476	0.0553999171
2695.00505	0.0552387051
2693.57534	0.0550672635
2692.14563	0.0548927821
2690.71592	0.0547225662
2689.28620	0.0545602813
2687.85649	0.0544088259
2686.42678	0.0542738214
2684.99707	0.0541641638
2683.56736	0.0540839098
2682.13765	0.0540248640
2680.70794	0.0539648049
2679.27823	0.0538786650
2677.84852	0.0537504777
2676.41881	0.0535813235
2674.98910	0.0533867665
2673.55938	0.0531879663
2672.12967	0.0530028008
2670.69996	0.0528418012
2669.27025	0.0527060255
2667.84054	0.0525878221
2666.41083	0.0524730682
2664.98112	0.0523450002
2663.55141	0.0521920398
2662.12170	0.0520142131
2660.69199	0.0518243536
2659.26228	0.0516426824
2657.83256	0.0514850989
2656.40285	0.0513561554
2654.97314	0.0512474366
2653.54343	0.0511459671
2652.11372	0.0510426871
2650.68401	0.0509365201
2649.25430	0.0508324429
2647.82459	0.0507352874
2646.39488	0.0506460369
2644.96517	0.0505615473
2643.53546	0.0504762568
2642.10575	0.0503838919
2640.67603	0.0502793677
2639.24632	0.0501595847
2637.81661	0.0500260107
2636.38690	0.0498857088
2634.95719	0.0497494601
2633.52748	0.0496280566
2632.09777	0.0495275706
2630.66806	0.0494475327
2629.23835	0.0493820980
2627.80864	0.0493241809
2626.37893	0.0492681861
2624.94921	0.0492113009
2623.51950	0.0491523370
2622.08979	0.0490898415
2620.66008	0.0490217656
2619.23037	0.0489447750
2617.80066	0.0488559194
2616.37095	0.0487540513
2614.94124	0.0486418121
2613.51153	0.0485268496
2612.08182	0.0484200791
2610.65211	0.0483305529
2609.22239	0.0482598469
2607.79268	0.0482016765
2606.36297	0.0481449850
2604.93326	0.0480813943
2603.50355	0.0480099767
2602.07384	0.0479353331
2600.64413	0.0478635617
2599.21442	0.0477963425
2597.78471	0.0477310680
2596.35500	0.0476640128
2594.92529	0.0475954339
2593.49557	0.0475301035
2592.06586	0.0474741086
2590.63615	0.0474297591
2589.20644	0.0473938994
2587.77673	0.0473618247
2586.34702	0.0473303869
2584.91731	0.0473006293
2583.48760	0.0472742468
2582.05789	0.0472504944
2580.62818	0.0472266562
2579.19847	0.0472020097
2577.76875	0.0471788645
2576.33904	0.0471613780
2574.90933	0.0471506752
2573.47962	0.0471436344
2572.04991	0.0471360162
2570.62020	0.0471272431
2569.19049	0.0471215323
2567.76078	0.0471242443
2566.33107	0.0471353792
2564.90136	0.0471477024
2563.47165	0.0471506156
2562.04193	0.0471378639
2560.61222	0.0471132211
2559.18251	0.0470901690
2557.75280	0.0470829867
2556.32309	0.0470979586
2554.89338	0.0471288301
2553.46367	0.0471615791
2552.03396	0.0471838862
2550.60425	0.0471938439
2549.17454	0.0472003631
2547.74483	0.0472163223
2546.31511	0.0472494848
2544.88540	0.0472966731
2543.45569	0.0473454557
2542.02598	0.0473817736
2540.59627	0.0473988652
2539.16656	0.0474022999
2537.73685	0.0474075861
2536.30714	0.0474315472
2534.87743	0.0474820212
2533.44772	0.0475545675
2532.01801	0.0476353839
2530.58829	0.0477106981
2529.15858	0.0477738604
2527.72887	0.0478269458
2526.29916	0.0478761643
2524.86945	0.0479259379
2523.43974	0.0479758903
2522.01003	0.0480229855
2520.58032	0.0480647385
2519.15061	0.0481013171
2517.72090	0.0481344312
2516.29119	0.0481634662
2514.86147	0.0481867492
2513.43176	0.0482051186
2512.00205	0.0482259728
2510.57234	0.0482617542
2509.14263	0.0483215824
2507.71292	0.0484026298
2506.28321	0.0484887026
2504.85350	0.0485606603
2503.42379	0.0486087762
2501.99408	0.0486392044
2500.56437	0.0486683324
2499.13465	0.0487111025
2497.70494	0.0487710238
2496.27523	0.0488406532
2494.84552	0.0489090197
2493.41581	0.0489686206
2491.98610	0.0490185767
2490.55639	0.0490630902
2489.12668	0.0491074659
2487.69697	0.0491557866
2486.26726	0.0492086634
2484.83755	0.0492639542
2483.40784	0.0493165813
2481.97812	0.0493619666
2480.54841	0.0493990928
2479.11870	0.0494332612
2477.68899	0.0494731180
2476.25928	0.0495274253
2474.82957	0.0496000536
2473.39986	0.0496894084
2471.97015	0.0497896373
2470.54044	0.0498923026
2469.11073	0.0499863364
2467.68102	0.0500591546
2466.25130	0.0501007512
2464.82159	0.0501106009
2463.39188	0.0501009561
2461.96217	0.0500922985
2460.53246	0.0501026101
2459.10275	0.0501373895
2457.67304	0.0501889624
2456.24333	0.0502439402
2454.81362	0.0502913408
2453.38391	0.0503261909
2451.95420	0.0503476709
2450.52448	0.0503570326
2449.09477	0.0503583960
2447.66506	0.0503588058
2446.23535	0.0503670610
2444.80564	0.0503879339
2443.37593	0.0504190959
2441.94622	0.0504531115
2440.51651	0.0504832938
2439.08680	0.0505085327
2437.65709	0.0505320281
2436.22738	0.0505578816
2434.79766	0.0505874306
2433.36795	0.0506193936
2431.93824	0.0506524965
2430.50853	0.0506856591
2429.07882	0.0507184453
2427.64911	0.0507500097
2426.21940	0.0507795736
2424.78969	0.0508074760
2423.35998	0.0508342199
2421.93027	0.0508594513
2420.50056	0.0508808419
2419.07084	0.0508946925
2417.64113	0.0508987978
2416.21142	0.0508935302
2414.78171	0.0508814529
2413.35200	0.0508658811
2411.92229	0.0508490913
2410.49258	0.0508341901
2409.06287	0.0508256331
2407.63316	0.0508286022
2406.20345	0.0508448705
2404.77374	0.0508710630
2403.34402	0.0508974865
2401.91431	0.0509136692
2400.48460	0.0509134680
2399.05489	0.0508998446
2397.62518	0.0508826151
2396.19547	0.0508737676
2394.76576	0.0508791804
2393.33605	0.0508947521
2391.90634	0.0509079956
2390.47663	0.0509044454
2389.04692	0.0508753695
2387.61720	0.0508218519
2386.18749	0.0507509410
2384.75778	0.0506704748
2383.32807	0.0505824871
2381.89836	0.0504814908
2380.46865	0.0503574386
2379.03894	0.0502010509
2377.60923	0.0500092804
2376.17952	0.0497882143
2374.74981	0.0495511889
2373.32010	0.0493098833
2371.89038	0.0490672067
2370.46067	0.0488136858
2369.03096	0.0485353619
2367.60125	0.0482262038
2366.17154	0.0479005575
2364.74183	0.0475948006
2363.31212	0.0473602675
2361.88241	0.0472456738
2360.45270	0.0472761244
2359.02299	0.0474417992
2357.59328	0.0477046594
2356.16356	0.0480152369
2354.73385	0.0483276285
2353.30414	0.0486020893
2351.87443	0.0488084443
2350.44472	0.0489272736
2349.01501	0.0489497297
2347.58530	0.0488779657
2346.15559	0.0487302169
2344.72588	0.0485447384
2343.29617	0.0483761542
2341.86646	0.0482704900
2340.43674	0.0482364148
2339.00703	0.0482470319
2337.57732	0.0482659489
2336.14761	0.0482699424
2334.71790	0.0482544079
2333.28819	0.0482282564
2331.85848	0.0482075475
2330.42877	0.0482076928
2328.99906	0.0482378304
2327.56935	0.0482991897
2326.13964	0.0483859330
2324.70993	0.0484878048
2323.28021	0.0485917218
2321.85050	0.0486824065
2320.42079	0.0487478226
2318.99108	0.0487846062
2317.56137	0.0488005057
2316.13166	0.0488104112
2314.70195	0.0488274731
2313.27224	0.0488558896
2311.84253	0.0488902181
2310.41282	0.0489226095
2308.98311	0.0489495546
2307.55339	0.0489741266
2306.12368	0.0489997715
2304.69397	0.0490245447
2303.26426	0.0490407459
2301.83455	0.0490411222
2300.40484	0.0490240827
2298.97513	0.0489947274
2297.54542	0.0489598997
2296.11571	0.0489245504
2294.68600	0.0488916971
2293.25629	0.0488635078
2291.82657	0.0488412045
2290.39686	0.0488244593
2288.96715	0.0488105565
2287.53744	0.0487966239
2286.10773	0.0487811007
2284.67802	0.0487632900
2283.24831	0.0487416536
2281.81860	0.0487149842
2280.38889	0.0486825220
2278.95918	0.0486450233
2277.52947	0.0486034490
2276.09975	0.0485577062
2274.67004	0.0485070795
2273.24033	0.0484530441
2271.81062	0.0483998805
2270.38091	0.0483531207
2268.95120	0.0483161137
2267.52149	0.0482891239
2266.09178	0.0482702032
2264.66207	0.0482568368
2263.23236	0.0482459329
2261.80265	0.0482329726
2260.37293	0.0482115373
2258.94322	0.0481759906
2257.51351	0.0481245108
2256.08380	0.0480615012
2254.65409	0.0479967929
2253.22438	0.0479405075
2251.79467	0.0478980169
2250.36496	0.0478671752
2248.93525	0.0478412807
2247.50554	0.0478149541
2246.07583	0.0477872379
2244.64611	0.0477603935
2243.21640	0.0477367602
2241.78669	0.0477159582
2240.35698	0.0476968586
2238.92727	0.0476794690
2237.49756	0.0476639234
2236.06785	0.0476482399
2234.63814	0.0476275273
2233.20843	0.0475962721
2231.77872	0.0475530364
2230.34901	0.0475027263
2228.91929	0.0474550538
2227.48958	0.0474199690
2226.05987	0.0474018082
2224.63016	0.0473964103
2223.20045	0.0473928005
2221.77074	0.0473793186
2220.34103	0.0473507121
2218.91132	0.0473107025
2217.48161	0.0472674929
2216.05190	0.0472265966
2214.62219	0.0471872352
2213.19247	0.0471461713
2211.76276	0.0471022576
2210.33305	0.0470591560
2208.90334	0.0470215119
2207.47363	0.0469898693
2206.04392	0.0469601601
2204.61421	0.0469284356
2203.18450	0.0468950383
2201.75479	0.0468657985
2200.32508	0.0468459614
2198.89537	0.0468336195
2197.46565	0.0468181372
2196.03594	0.0467852093
2194.60623	0.0467266589
2193.17652	0.0466470495
2191.74681	0.0465624109
2190.31710	0.0464908965
2188.88739	0.0464428142
2187.45768	0.0464169160
2186.02797	0.0464033782
2184.59826	0.0463910773
2183.16855	0.0463729873
2181.73883	0.0463466905
2180.30912	0.0463127643
2178.87941	0.0462722778
2177.44970	0.0462252833
2176.01999	0.0461714417
2174.59028	0.0461117364
2173.16057	0.0460501686
2171.73086	0.0459933579
2170.30115	0.0459469147
2168.87144	0.0459116660
2167.44173	0.0458817147
2166.01202	0.0458489172
2164.58230	0.0458081253
2163.15259	0.0457602069
2161.72288	0.0457100458
2160.29317	0.0456615910
2158.86346	0.0456157550
2157.43375	0.0455702990
2156.00404	0.0455236696
2154.57433	0.0454763845
2153.14462	0.0454300530
2151.71491	0.0453855954
2150.28520	0.0453418568
2148.85548	0.0452963151
2147.42577	0.0452474728
2145.99606	0.0451964252
2144.56635	0.0451463051
2143.13664	0.0451007262
2141.70693	0.0450615250
2140.27722	0.0450275838
2138.84751	0.0449955985
2137.41780	0.0449625812
2135.98809	0.0449269563
2134.55838	0.0448897816
2133.12866	0.0448535271
2131.69895	0.0448203757
2130.26924	0.0447909907
2128.83953	0.0447648466
2127.40982	0.0447398797
2125.98011	0.0447134823
2124.55040	0.0446823239
2123.12069	0.0446431339
2121.69098	0.0445954539
2120.26127	0.0445424765
2118.83156	0.0444913097
2117.40184	0.0444484390
2115.97213	0.0444162376
2114.54242	0.0443913490
2113.11271	0.0443685576
2111.68300	0.0443435274
2110.25329	0.0443150327
2108.82358	0.0442816950
2107.39387	0.0442407615
2105.96416	0.0441883132
2104.53445	0.0441234075
2103.10474	0.0440505743
2101.67502	0.0439795293
2100.24531	0.0439208709
2098.81560	0.0438816920
2097.38589	0.0438623317
2095.95618	0.0438565463
2094.52647	0.0438537113
2093.09676	0.0438424312
2091.66705	0.0438144542
2090.23734	0.0437674969
2088.80763	0.0437060036
2087.37792	0.0436383933
2085.94820	0.0435737967
2084.51849	0.0435182825
2083.08878	0.0434730165
2081.65907	0.0434351340
2080.22936	0.0434000343
2078.79965	0.0433649346
2077.36994	0.0433304682
2075.94023	0.0432994664
2074.51052	0.0432725549
2073.08081	0.0432458743
2071.65110	0.0432130173
2070.22138	0.0431702994
2068.79167	0.0431207232
2067.36196	0.0430728123
2065.93225	0.0430338830
2064.50254	0.0430053025
2063.07283	0.0429816097
2061.64312	0.0429537743
2060.21341	0.0429148525
2058.78370	0.0428616516
2057.35399	0.0427962840
2055.92428	0.0427250452
2054.49456	0.0426575579
2053.06485	0.0426032729
2051.63514	0.0425673276
2050.20543	0.0425478816
2048.77572	0.0425371751
2047.34601	0.0425254442
2045.91630	0.0425053723
2044.48659	0.0424744859
2043.05688	0.0424344651
2041.62717	0.0423893146
2040.19746	0.0423422828
2038.76774	0.0422953404
2037.33803	0.0422499776
2035.90832	0.0422088653
2034.47861	0.0421754867
2033.04890	0.0421519540
2031.61919	0.0421355553
2030.18948	0.0421200655
2028.75977	0.0420986451
2027.33006	0.0420676731
2025.90035	0.0420274362
2024.47064	0.0419812687
2023.04092	0.0419340543
2021.61121	0.0418925472
2020.18150	0.0418634415
2018.75179	0.0418501012
2017.32208	0.0418495014
2015.89237	0.0418530926
2014.46266	0.0418525226
2013.03295	0.0418433174
2011.60324	0.0418249592
2010.17353	0.0417983383
2008.74382	0.0417645089
2007.31411	0.0417258963
2005.88439	0.0416870266
2004.45468	0.0416530930
2003.02497	0.0416265689
2001.59526	0.0416070521
2000.16555	0.0415930636
1998.73584	0.0415841490
1997.30613	0.0415809862
1995.87642	0.0415839218
1994.44671	0.0415923819
1993.01700	0.0416055433
1991.58729	0.0416232646
1990.15757	0.0416458286
1988.72786	0.0416724682
1987.29815	0.0416994505
1985.86844	0.0417207964
1984.43873	0.0417322218
1983.00902	0.0417350158
1981.57931	0.0417372100
1980.14960	0.0417485498
1978.71989	0.0417732038
1977.29018	0.0418061502
1975.86047	0.0418352485
1974.43075	0.0418497026
1973.00104	0.0418468229
1971.57133	0.0418329127
1970.14162	0.0418208279
1968.71191	0.0418241918
1967.28220	0.0418521799
1965.85249	0.0419046618
1964.42278	0.0419708639
1962.99307	0.0420343094
1961.56336	0.0420813635
1960.13365	0.0421072580
1958.70393	0.0421175547
1957.27422	0.0421228893
1955.84451	0.0421337001
1954.41480	0.0421554074
1952.98509	0.0421869271
1951.55538	0.0422220454
1950.12567	0.0422528274
1948.69596	0.0422739424
1947.26625	0.0422861539
1945.83654	0.0422954001
1944.40683	0.0423093513
1942.97711	0.0423336066
1941.54740	0.0423695631
1940.11769	0.0424141176
1938.68798	0.0424612686
1937.25827	0.0425045155
1935.82856	0.0425412878
1934.39885	0.0425746627
1932.96914	0.0426111259
1931.53943	0.0426540188
1930.10972	0.0426986255
1928.68001	0.0427356437
1927.25029	0.0427585207
1925.82058	0.0427684896
1924.39087	0.0427743457
1922.96116	0.0427870303
1921.53145	0.0428154841
1920.10174	0.0428639092
1918.67203	0.0429304279
1917.24232	0.0430072173
1915.81261	0.0430835038
1914.38290	0.0431510285
1912.95319	0.0432074405
1911.52347	0.0432556234
1910.09376	0.0433000103
1908.66405	0.0433457717
1907.23434	0.0433970578
1905.80463	0.0434558205
1904.37492	0.0435200557
1902.94521	0.0435860157
1901.51550	0.0436512157
1900.08579	0.0437176526
1898.65608	0.0437880270
1897.22637	0.0438603275
1895.79665	0.0439263396
1894.36694	0.0439786725
1892.93723	0.0440182611
1891.50752	0.0440544412
1890.07781	0.0440989099
1888.64810	0.0441587381
1887.21839	0.0442352295
1885.78868	0.0443272144
1884.35897	0.0444324389
1882.92926	0.0445471518
1881.49955	0.0446655974
1880.06983	0.0447813459
1878.64012	0.0448889174
1877.21041	0.0449845456
1875.78070	0.0450644568
1874.35099	0.0451265723
1872.92128	0.0451712087
1871.49157	0.0452046692
1870.06186	0.0452406928
1868.63215	0.0452986434
1867.20244	0.0453923196
1865.77273	0.0455186404
1864.34301	0.0456585139
1862.91330	0.0457905233
1861.48359	0.0459049046
1860.05388	0.0460070856
1858.62417	0.0461107604
1857.19446	0.0462244190
1855.76475	0.0463444181
1854.33504	0.0464596637
1852.90533	0.0465599597
1851.47562	0.0466401316
1850.04591	0.0467008315
1848.61619	0.0467495769
1847.18648	0.0468034036
1845.75677	0.0468846858
1844.32706	0.0470066853
1842.89735	0.0471606590
1841.46764	0.0473234877
1840.03793	0.0474773720
1838.60822	0.0476176180
1837.17851	0.0477436669
1835.74880	0.0478523485
1834.31909	0.0479396991
1832.88938	0.0480098017
1831.45966	0.0480782986
1830.02995	0.0481650308
1828.60024	0.0482824668
1827.17053	0.0484313965
1825.74082	0.0486035049
1824.31111	0.0487871245
1822.88140	0.0489707068
1821.45169	0.0491469130
1820.02198	0.0493156835
1818.59227	0.0494809486
1817.16256	0.0496436954
1815.73284	0.0497978255
1814.30313	0.0499369651
1812.87342	0.0500646718
1811.44371	0.0501941033
1810.01400	0.0503353477
1808.58429	0.0504855029
1807.15458	0.0506328903
1805.72487	0.0507722981
1804.29516	0.0509105548
1802.86545	0.0510594286
1801.43574	0.0512237847
1800.00602	0.0513964817
1798.57631	0.0515640602
1797.14660	0.0517177321
1795.71689	0.0518622138
1794.28718	0.0520178005
1792.85747	0.0522124730
1791.42776	0.0524597503
1789.99805	0.0527408645
1788.56834	0.0530177169
1787.13863	0.0532616749
1785.70892	0.0534688234
1784.27920	0.0536524020
1782.84949	0.0538271517
1781.41978	0.0540000945
1779.99007	0.0541724600
1778.56036	0.0543457791
1777.13065	0.0545233898
1775.70094	0.0547116995
1774.27123	0.0549240932
1772.84152	0.0551829711
1771.41181	0.0555035621
1769.98210	0.0558692589
1768.55238	0.0562382638
1767.12267	0.0565806031
1765.69296	0.0568997487
1764.26325	0.0572231784
1762.83354	0.0575782955
1761.40383	0.0579769500
1759.97412	0.0584147610
1758.54441	0.0588813238
1757.11470	0.0593662523
1755.68499	0.0598625392
1754.25528	0.0603728406
1752.82556	0.0609177537
1751.39585	0.0615287237
1749.96614	0.0622170530
1748.53643	0.0629494712
1747.10672	0.0636716187
1745.67701	0.0643560067
1744.24730	0.0650124848
1742.81759	0.0656557679
1741.38788	0.0662801415
1739.95817	0.0668686628
1738.52846	0.0674245134
1737.09874	0.0679884031
1735.66903	0.0686228722
1734.23932	0.0693724677
1732.80961	0.0702289715
1731.37990	0.0711408034
1729.95019	0.0720644817
1728.52048	0.0729907453
1727.09077	0.0739310458
1725.66106	0.0748942718
1724.23135	0.0758779794
1722.80164	0.0768800825
1721.37192	0.0779274628
1719.94221	0.0791010261
1718.51250	0.0805138275
1717.08279	0.0821965337
1715.65308	0.0839899257
1714.22337	0.0856558159
1712.79366	0.0870951936
1711.36395	0.0883750468
1709.93424	0.0896175653
1708.50453	0.0909167528
1707.07482	0.0923197269
1705.64510	0.0938552916
1704.21539	0.0955848545
1702.78568	0.0976394415
1701.35597	0.1001970842
1699.92626	0.1033643112
1698.49655	0.1070004776
1697.06684	0.1107010171
1695.63713	0.1140667647
1694.20742	0.1169465259
1692.77771	0.1194042489
1691.34800	0.1215824187
1689.91828	0.1236416847
1688.48857	0.1257794350
1687.05886	0.1282539517
1685.62915	0.1312915236
1684.19944	0.1348193437
1682.76973	0.1383537650
1681.34002	0.1414250880
1679.91031	0.1439872682
1678.48060	0.1462977380
1677.05089	0.1486318707
1675.62118	0.1511397362
1674.19147	0.1538459659
1672.76175	0.1567259133
1671.33204	0.1597571075
1669.90233	0.1628796607
1668.47262	0.1659638286
1667.04291	0.1688970178
1665.61320	0.1716859192
1664.18349	0.1744138896
1662.75378	0.1770800948
1661.32407	0.1795098484
1659.89436	0.1814609617
1658.46465	0.1827977002
1657.03493	0.1835221350
1655.60522	0.1836727709
1654.17551	0.1832430512
1652.74580	0.1822371185
1651.31609	0.1807782501
1649.88638	0.1790437996
1648.45667	0.1771264225
1647.02696	0.1750691086
1645.59725	0.1729715019
1644.16754	0.1709747612
1642.73783	0.1691441089
1641.30811	0.1674139649
1639.87840	0.1656318158
1638.44869	0.1636329889
1637.01898	0.1613353342
1635.58927	0.1588298678
1634.15956	0.1563178301
1632.72985	0.1538961381
1631.30014	0.1514748782
1629.87043	0.1488754600
1628.44072	0.1459262818
1627.01101	0.1425234526
1625.58129	0.1386929303
1624.15158	0.1346124858
1622.72187	0.1305116564
1621.29216	0.1265107542
1619.86245	0.1225682646
1618.43274	0.1185906306
1617.00303	0.1146069616
1615.57332	0.1108309701
1614.14361	0.1074990258
1612.71390	0.1046664789
1611.28419	0.1022064686
1609.85447	0.0999602228
1608.42476	0.0978566185
1606.99505	0.0959223509
1605.56534	0.0942096785
1604.13563	0.0927297696
1602.70592	0.0914542675
1601.27621	0.0903569609
1599.84650	0.0894315615
1598.41679	0.0886724070
1596.98708	0.0880584866
1595.55737	0.0875646174
1594.12765	0.0871820748
1592.69794	0.0869186148
1591.26823	0.0867822841
1589.83852	0.0867740363
1588.40881	0.0868959129
1586.97910	0.0871530548
1585.54939	0.0875366256
1584.11968	0.0880103633
1582.68997	0.0885264799
1581.26026	0.0890637636
1579.83055	0.0896495432
1578.40083	0.0903425217
1576.97112	0.0911757499
1575.54141	0.0921083316
1574.11170	0.0930574834
1572.68199	0.0939885899
1571.25228	0.0949478596
1569.82257	0.0960039422
1568.39286	0.0971603990
1566.96315	0.0983324721
1565.53344	0.0994236097
1564.10373	0.1004256606
1562.67401	0.1014657691
1561.24430	0.1028007865
1559.81459	0.1047024801
1558.38488	0.1071254537
1556.95517	0.1095364019
1555.52546	0.1114404872
1554.09575	0.1127977669
1552.66604	0.1137811765
1551.23633	0.1145005003
1549.80662	0.1149535701
1548.37691	0.1150907353
1546.94719	0.1148835793
1545.51748	0.1143396422
1544.08777	0.1134678051
1542.65806	0.1122642457
1541.22835	0.1107866690
1539.79864	0.1092228815
1538.36893	0.1077565625
1536.93922	0.1064004973
1535.50951	0.1050552130
1534.07980	0.1036416218
1532.65009	0.1021549180
1531.22037	0.1006420925
1529.79066	0.0991432592
1528.36095	0.0976554826
1526.93124	0.0961478502
1525.50153	0.0946010724
1524.07182	0.0930324048
1522.64211	0.0914950073
1521.21240	0.0900491178
1519.78269	0.0887236819
1518.35298	0.0874916613
1516.92327	0.0862844065
1515.49356	0.0850322843
1514.06384	0.0836923271
1512.63413	0.0822324753
1511.20442	0.0805901065
1509.77471	0.0786590576
1508.34500	0.0763952434
1506.91529	0.0740290210
1505.48558	0.0720081404
1504.05587	0.0705469251
1502.62616	0.0694890469
1501.19645	0.0685774907
1499.76674	0.0676456690
1498.33702	0.0666571707
1496.90731	0.0656795576
1495.47760	0.0648020133
1494.04789	0.0640538633
1492.61818	0.0634057224
1491.18847	0.0628280938
1489.75876	0.0623327084
1488.32905	0.0619636551
1486.89934	0.0617480874
1485.46963	0.0616652593
1484.03992	0.0616683625
1482.61020	0.0617206059
1481.18049	0.0618134439
1479.75078	0.0619643405
1478.32107	0.0622100346
1476.89136	0.0626007318
1475.46165	0.0631864145
1474.03194	0.0639702603
1472.60223	0.0648535192
1471.17252	0.0656682402
1469.74281	0.0662969053
1468.31310	0.0667280108
1466.88338	0.0670139864
1465.45367	0.0672152862
1464.02396	0.0673718229
1462.59425	0.0675017089
1461.16454	0.0676208362
1459.73483	0.0677606910
1458.30512	0.0679578930
1456.87541	0.0682060868
1455.44570	0.0684268847
1454.01599	0.0685305074
1452.58628	0.0684846789
1451.15656	0.0683051124
1449.72685	0.0680229440
1448.29714	0.0676754043
1446.86743	0.0673047155
1445.43772	0.0669455454
1444.00801	0.0666075572
1442.57830	0.0662714913
1441.14859	0.0659047663
1439.71888	0.0654806793
1438.28917	0.0650000051
1436.85946	0.0645037591
1435.42974	0.0640618429
1434.00003	0.0637338534
1432.57032	0.0635441616
1431.14061	0.0634913370
1429.71090	0.0635652021
1428.28119	0.0637505502
1426.85148	0.0640244633
1425.42177	0.0643610805
1423.99206	0.0647452772
1422.56235	0.0651809126
1421.13264	0.0656858832
1419.70292	0.0662689880
1418.27321	0.0669025779
1416.84350	0.0675299242
1415.41379	0.0681054220
1413.98408	0.0686234161
1412.55437	0.0691066384
1411.12466	0.0695791245
1409.69495	0.0700467676
1408.26524	0.0704946145
1406.83553	0.0708976239
1405.40582	0.0712318346
1403.97610	0.0714777336
1402.54639	0.0716211572
1401.11668	0.0716548264
1399.68697	0.0715824515
1398.25726	0.0714175254
1396.82755	0.0711804181
1395.39784	0.0708919913
1393.96813	0.0705683008
1392.53842	0.0702151284
1391.10871	0.0698251203
1389.67900	0.0693850741
1388.24928	0.0688874349
1386.81957	0.0683436468
1385.38986	0.0677819327
1383.96015	0.0672301278
1382.53044	0.0666990653
1381.10073	0.0661851689
1379.67102	0.0656859428
1378.24131	0.0652116835
1376.81160	0.0647850037
1375.38189	0.0644322634
1373.95218	0.0641707554
1372.52246	0.0639993548
1371.09275	0.0638960302
1369.66304	0.0638242438
1368.23333	0.0637470707
1366.80362	0.0636414364
1365.37391	0.0635082051
1363.94420	0.0633725300
1362.51449	0.0632704049
1361.08478	0.0632293820
1359.65507	0.0632568076
1358.22536	0.0633438081
1356.79565	0.0634748638
1355.36593	0.0636312515
1353.93622	0.0637919828
1352.50651	0.0639376268
1351.07680	0.0640575215
1349.64709	0.0641535595
1348.21738	0.0642353073
1346.78767	0.0643114522
1345.35796	0.0643841028
1343.92825	0.0644515380
1342.49854	0.0645136088
1341.06883	0.0645779744
1339.63911	0.0646594688
1338.20940	0.0647714809
1336.77969	0.0649162233
1335.34998	0.0650825724
1333.92027	0.0652558729
1332.49056	0.0654285252
1331.06085	0.0656057298
1329.63114	0.0658001751
1328.20143	0.0660234243
1326.77172	0.0662782714
1325.34201	0.0665583387
1323.91229	0.0668546855
1322.48258	0.0671611726
1321.05287	0.0674763396
1319.62316	0.0678005069
1318.19345	0.0681298301
1316.76374	0.0684547052
1315.33403	0.0687624440
1313.90432	0.0690446049
1312.47461	0.0693018660
1311.04490	0.0695430860
1309.61519	0.0697800070
1308.18547	0.0700207651
1306.75576	0.0702684745
1305.32605	0.0705218017
1303.89634	0.0707767755
1302.46663	0.0710263178
1301.03692	0.0712611452
1299.60721	0.0714733377
1298.17750	0.0716593191
1296.74779	0.0718201175
1295.31808	0.0719593465
1293.88837	0.0720802248
1292.45865	0.0721863061
1291.02894	0.0722829998
1289.59923	0.0723778829
1288.16952	0.0724778548
1286.73981	0.0725868568
1285.31010	0.0727052465
1283.88039	0.0728316233
1282.45068	0.0729654506
1281.02097	0.0731071308
1279.59126	0.0732591227
1278.16155	0.0734248683
1276.73183	0.0736092627
1275.30212	0.0738182738
1273.87241	0.0740588307
1272.44270	0.0743397176
1271.01299	0.0746697038
1269.58328	0.0750543326
1268.15357	0.0754926503
1266.72386	0.0759781227
1265.29415	0.0765052587
1263.86444	0.0770756900
1262.43473	0.0776980743
1261.00501	0.0783803463
1259.57530	0.0791190118
1258.14559	0.0798953325
1256.71588	0.0806776285
1255.28617	0.0814277679
1253.85646	0.0821071789
1252.42675	0.0826825127
1250.99704	0.0831312612
1249.56733	0.0834454447
1248.13762	0.0836300328
1246.70791	0.0836960003
1245.27819	0.0836532563
1243.84848	0.0835090950
1242.41877	0.0832710937
1240.98906	0.0829521567
1239.55935	0.0825696364
1238.12964	0.0821419209
1236.69993	0.0816828534
1235.27022	0.0812017918
1233.84051	0.0807058364
1232.41080	0.0802029148
1230.98109	0.0797025934
1229.55137	0.0792141557
1228.12166	0.0787423700
1226.69195	0.0782840550
1225.26224	0.0778275207
1223.83253	0.0773563460
1222.40282	0.0768577456
1220.97311	0.0763298422
1219.54340	0.0757827014
1218.11369	0.0752337277
1216.68398	0.0746994317
1215.25427	0.0741913468
1213.82455	0.0737174973
1212.39484	0.0732847378
1210.96513	0.0728994012
1209.53542	0.0725652874
1208.10571	0.0722821727
1206.67600	0.0720492378
1205.24629	0.0718677938
1203.81658	0.0717431903
1202.38687	0.0716817901
1200.95716	0.0716891736
1199.52745	0.0717702135
1198.09774	0.0719316974
1196.66802	0.0721816272
1195.23831	0.0725252405
1193.80860	0.0729588345
1192.37889	0.0734685212
1190.94918	0.0740339607
1189.51947	0.0746346936
1188.08976	0.0752555206
1186.66005	0.0758894160
1185.23034	0.0765384734
1183.80063	0.0772145391
1182.37092	0.0779361948
1180.94120	0.0787212402
1179.51149	0.0795772150
1178.08178	0.0804972798
1176.65207	0.0814639851
1175.22236	0.0824574828
1173.79265	0.0834602192
1172.36294	0.0844571292
1170.93323	0.0854349062
1169.50352	0.0863863379
1168.07381	0.0873170048
1166.64410	0.0882478654
1165.21438	0.0892076492
1163.78467	0.0902180150
1162.35496	0.0912811458
1160.92525	0.0923785120
1159.49554	0.0934813917
1158.06583	0.0945668668
1156.63612	0.0956289247
1155.20641	0.0966796800
1153.77670	0.0977396667
1152.34699	0.0988247991
1150.91728	0.0999382958
1149.48756	0.1010727510
1148.05785	0.1022203937
1146.62814	0.1033841819
1145.19843	0.1045794189
1143.76872	0.1058272049
1142.33901	0.1071445048
1140.90930	0.1085390523
1139.47959	0.1100104526
1138.04988	0.1115552932
1136.62017	0.1131707504
1135.19046	0.1148540378
1133.76074	0.1165999472
1132.33103	0.1183984205
1130.90132	0.1202353090
1129.47161	0.1220950559
1128.04190	0.1239647567
1126.61219	0.1258369833
1125.18248	0.1277089268
1123.75277	0.1295798123
1122.32306	0.1314462125
1120.89335	0.1332998425
1119.46364	0.1351283640
1118.03392	0.1369199157
1116.60421	0.1386689842
1115.17450	0.1403779536
1113.74479	0.1420534104
1112.31508	0.1436977088
1110.88537	0.1453010887
1109.45566	0.1468405873
1108.02595	0.1482884288
1106.59624	0.1496227533
1105.16653	0.1508350819
1103.73682	0.1519281417
1102.30710	0.1529085189
1100.87739	0.1537812650
1099.44768	0.1545516551
1098.01797	0.1552284807
1096.58826	0.1558251977
1095.15855	0.1563524902
1093.72884	0.1568099111
1092.29913	0.1571818739
1090.86942	0.1574409157
1089.43971	0.1575595140
1088.01000	0.1575200707
1086.58028	0.1573200077
1085.15057	0.1569670588
1083.72086	0.1564694196
1082.29115	0.1558284461
1080.86144	0.1550400406
1079.43173	0.1541012824
1078.00202	0.1530163884
1076.57231	0.1517933756
1075.14260	0.1504397392
1073.71289	0.1489614248
1072.28318	0.1473701298
1070.85346	0.1456895918
1069.42375	0.1439539492
1067.99404	0.1421921700
1066.56433	0.1404130310
1065.13462	0.1385970414
1063.70491	0.1367042512
1062.27520	0.1346921027
1060.84549	0.1325342804
1059.41578	0.1302311867
1057.98607	0.1278089136
1056.55636	0.1253066808
1055.12664	0.1227641106
1053.69693	0.1202136651
1052.26722	0.1176807582
1050.83751	0.1151865050
1049.40780	0.1127488390
1047.97809	0.1103801131
1046.54838	0.1080872864
1045.11867	0.1058744341
1043.68896	0.1037462056
1042.25925	0.1017077118
1040.82954	0.0997614637
1039.39983	0.0979056209
1037.97011	0.0961363167
1036.54040	0.0944518894
1035.11069	0.0928554162
1033.68098	0.0913522169
1032.25127	0.0899461210
1030.82156	0.0886366889
1029.39185	0.0874203891
1027.96214	0.0862936527
1026.53243	0.0852552205
1025.10272	0.0843070522
1023.67301	0.0834527537
1022.24329	0.0826959163
1020.81358	0.0820398778
1019.38387	0.0814899355
1017.95416	0.0810581371
1016.52445	0.0807643831
1015.09474	0.0806324333
1013.66503	0.0806807429
1012.23532	0.0809161142
1010.80561	0.0813326389
1009.37590	0.0819182619
1007.94619	0.0826595575
1006.51647	0.0835415423
1005.08676	0.0845451802
1003.65705	0.0856464207
1002.22734	0.0868192688
1000.79763	0.0880393684
999.36792	0.0892812461
997.93821	0.0905129761
996.50850	0.0916928276
995.07879	0.0927700251
993.64908	0.0936910436
992.21937	0.0944072008
990.78965	0.0948813111
989.35994	0.0950953811
987.93023	0.0950536877
986.50052	0.0947777182
985.07081	0.0942941010
983.64110	0.0936238244
982.21139	0.0927811787
980.78168	0.0917814299
979.35197	0.0906485021
977.92226	0.0894135907
976.49255	0.0881054774
975.06283	0.0867427438
973.63312	0.0853343904
972.20341	0.0838864446
970.77370	0.0824079067
969.34399	0.0809152126
967.91428	0.0794334412
966.48457	0.0779967234
965.05486	0.0766452849
963.62515	0.0754157528
962.19544	0.0743307844
960.76573	0.0733929574
959.33601	0.0725886300
957.90630	0.0718965083
956.47659	0.0712957382
955.04688	0.0707715973
953.61717	0.0703175291
952.18746	0.0699347630
950.75775	0.0696278587
949.32804	0.0693986192
947.89833	0.0692405626
946.46862	0.0691414177
945.03891	0.0690873340
943.60919	0.0690666661
942.17948	0.0690687895
940.74977	0.0690810233
939.32006	0.0690877587
937.89035	0.0690738857
936.46064	0.0690296739
935.03093	0.0689518452
933.60122	0.0688428134
932.17151	0.0687083155
930.74180	0.0685559958
929.31209	0.0683936998
927.88237	0.0682272315
926.45266	0.0680582821
925.02295	0.0678867623
923.59324	0.0677137673
922.16353	0.0675445572
920.73382	0.0673848167
919.30411	0.0672354475
917.87440	0.0670866966
916.44469	0.0669199675
915.01498	0.0667146370
913.58527	0.0664572120
912.15555	0.0661490560
910.72584	0.0658116192
909.29613	0.0654856488
907.86642	0.0652225763
906.43671	0.0650682300
905.00700	0.0650468469
903.57729	0.0651530623
902.14758	0.0653590113
900.71787	0.0656298175
899.28816	0.0659403503
897.85845	0.0662824661
896.42873	0.0666612461
894.99902	0.0670854300
893.56931	0.0675567463
892.13960	0.0680673346
890.70989	0.0686025918
889.28018	0.0691493154
887.85047	0.0697002485
886.42076	0.0702529848
884.99105	0.0708040148
883.56134	0.0713470206
882.13163	0.0718760416
880.70192	0.0723910928
879.27220	0.0728975683
877.84249	0.0734001920
876.41278	0.0738964900
874.98307	0.0743761212
873.55336	0.0748234391
872.12365	0.0752213821
870.69394	0.0755546913
869.26423	0.0758139566
867.83452	0.0760014951
866.40481	0.0761289597
864.97510	0.0762066990
863.54538	0.0762290061
862.11567	0.0761714354
860.68596	0.0760054141
859.25625	0.0757186338
857.82654	0.0753265172
856.39683	0.0748652965
854.96712	0.0743745267
853.53741	0.0738810524
852.10770	0.0733944252
850.67799	0.0729118958
849.24828	0.0724274814
847.81856	0.0719400346
846.38885	0.0714538693
844.95914	0.0709751919
843.52943	0.0705080405
842.09972	0.0700551048
840.67001	0.0696236342
839.24030	0.0692274198
837.81059	0.0688788816
836.38088	0.0685750619
834.95117	0.0682902038
833.52146	0.0679859519
832.09174	0.0676329955
830.66203	0.0672291890
829.23232	0.0667981654
827.80261	0.0663725138
826.37290	0.0659761429
824.94319	0.0656195506
823.51348	0.0653060898
822.08377	0.0650414079
820.65406	0.0648305938
819.22435	0.0646717548
817.79464	0.0645510927
816.36492	0.0644495860
814.93521	0.0643562749
813.50550	0.0642740875
812.07579	0.0642127991
810.64608	0.0641767308
809.21637	0.0641591698
807.78666	0.0641497821
806.35695	0.0641457886
804.92724	0.0641548857
803.49753	0.0641858503
802.06782	0.0642372891
800.63810	0.0642944351
799.20839	0.0643375143
797.77868	0.0643518940
796.34897	0.0643357411
794.91926	0.0643020272
793.48955	0.0642721057
792.05984	0.0642671511
790.63013	0.0642982200
789.20042	0.0643623099
787.77071	0.0644493774
786.34100	0.0645504296
784.91128	0.0646613017
783.48157	0.0647770092
782.05186	0.0648864955
780.62215	0.0649752319
779.19244	0.0650352389
777.76273	0.0650709048
776.33302	0.0650959536
774.90331	0.0651254579
773.47360	0.0651697889
772.04389	0.0652362332
770.61418	0.0653294027
769.18446	0.0654463097
767.75475	0.0655726120
766.32504	0.0656857938
764.89533	0.0657690614
763.46562	0.0658224374
762.03591	0.0658617169
760.60620	0.0659070536
759.17649	0.0659703910
757.74678	0.0660516322
756.31707	0.0661442876
754.88736	0.0662414283
753.45764	0.0663398802
752.02793	0.0664387792
750.59822	0.0665405393
749.16851	0.0666498095
747.73880	0.0667728335
746.30909	0.0669139922
744.87938	0.0670726448
743.44967	0.0672432706
742.01996	0.0674179867
740.59025	0.0675901622
739.16054	0.0677560940
737.73082	0.0679175109
736.30111	0.0680848956
734.87140	0.0682785735
733.44169	0.0685239285
732.01198	0.0688346252
730.58227	0.0691973045
729.15256	0.0695679709
727.72285	0.0698910654
726.29314	0.0701297224
724.86343	0.0702869445
723.43372	0.0704030618
722.00401	0.0705341622
720.57429	0.0707258359
719.14458	0.0709974170
717.71487	0.0713395774
716.28516	0.0717231259
714.85545	0.0721139014
713.42574	0.0724839121
711.99603	0.0728214011
710.56632	0.0731311142
709.13661	0.0734251738
707.70690	0.0737090930
706.27719	0.0739714652
704.84747	0.0741866753
703.41776	0.0743298307
701.98805	0.0743911788
700.55834	0.0743808225
699.12863	0.0743209198
697.69892	0.0742345229
696.26921	0.0741385296
694.83950	0.0740435719
693.40979	0.0739564598
691.98008	0.0738828331
690.55037	0.0738285854
689.12065	0.0738011524
687.69094	0.0738094971
686.26123	0.0738608316
684.83152	0.0739566460
683.40181	0.0740909725
681.97210	0.0742510483
680.54239	0.0744192302
679.11268	0.0745717734
677.68297	0.0746790171
676.25326	0.0747142211
674.82355	0.0746684447
673.39383	0.0745633468
671.96412	0.0744537935
670.53441	0.0744186789
669.10470	0.0745225400
667.67499	0.0747444779
666.24528	0.0749632046
664.81557	0.0750616267
663.38586	0.0750154480
661.95615	0.0748791695
660.52644	0.0747391880
659.09673	0.0746700466
657.66701	0.0746984184
656.23730	0.0747908801
654.80759	0.0748862475
653.37788	0.0749433637
651.94817	0.0749642849
650.51846	0.0749799758
649.08875	0.0750160888
647.65904	0.0750707686
646.22933	0.0751176029
644.79962	0.0751265287
643.36991	0.0750853866
641.94019	0.0750080943
640.51048	0.0749265403
639.08077	0.0748712346
637.65106	0.0748538002
636.22135	0.0748593956
634.79164	0.0748529360
633.36193	0.0747904778
631.93222	0.0746274367
630.50251	0.0743235946
629.07280	0.0738512278
627.64309	0.0732120275
626.21337	0.0724540949
624.78366	0.0716740340
623.35395	0.0709862262
621.92424	0.0704708025
620.49453	0.0701414943
619.06482	0.0699543133
617.63511	0.0698440596
616.20540	0.0697517097
614.77569	0.0696386173
613.34598	0.0694954842
611.91627	0.0693485066
610.48655	0.0692475811
609.05684	0.0692381933
607.62713	0.0693316832
606.19742	0.0695003122
604.76771	0.0696992427
603.33800	0.0698958039
601.90829	0.0700817481
600.47858	0.0702671036
599.04887	0.0704665110
