3997.47168	0.0660791844
3996.04197	0.0660595000
3994.61226	0.0660562739
3993.18255	0.0660923868
3991.75284	0.0661770552
3990.32312	0.0662985668
3988.89341	0.0664297938
3987.46370	0.0665400848
3986.03399	0.0666053221
3984.60428	0.0666145906
3983.17457	0.0665720403
3981.74486	0.0664966404
3980.31515	0.0664160103
3978.88544	0.0663558990
3977.45573	0.0663298965
3976.02602	0.0663352683
3974.59630	0.0663574636
3973.16659	0.0663794503
3971.73688	0.0663886815
3970.30717	0.0663801134
3968.87746	0.0663545355
3967.44775	0.0663146377
3966.01804	0.0662641302
3964.58833	0.0662076548
3963.15862	0.0661523417
3961.72891	0.0661071539
3960.29920	0.0660785809
3958.86948	0.0660662502
3957.43977	0.0660618246
3956.01006	0.0660553724
3954.58035	0.0660432875
3953.15064	0.0660309643
3951.72093	0.0660282522
3950.29122	0.0660401210
3948.86151	0.0660617054
3947.43180	0.0660824105
3946.00209	0.0660960302
3944.57238	0.0661079660
3943.14266	0.0661296993
3941.71295	0.0661686510
3940.28324	0.0662182719
3938.85353	0.0662625059
3937.42382	0.0662875921
3935.99411	0.0662913024
3934.56440	0.0662836730
3933.13469	0.0662770346
3931.70498	0.0662752539
3930.27527	0.0662724525
3928.84556	0.0662636757
3927.41585	0.0662527010
3925.98613	0.0662499592
3924.55642	0.0662608445
3923.12671	0.0662779436
3921.69700	0.0662869886
3920.26729	0.0662803501
3918.83758	0.0662663952
3917.40787	0.0662635863
3915.97816	0.0662818626
3914.54845	0.0663092136
3913.11874	0.0663150623
3911.68903	0.0662668422
3910.25931	0.0661447719
3908.82960	0.0659518614
3907.39989	0.0657178313
3905.97018	0.0655000657
3904.54047	0.0653732121
3903.11076	0.0653966591
3901.68105	0.0655705929
3900.25134	0.0658200234
3898.82163	0.0660468414
3897.39192	0.0661917105
3895.96221	0.0662507713
3894.53249	0.0662560537
3893.10278	0.0662501082
3891.67307	0.0662629232
3890.24336	0.0662971213
3888.81365	0.0663282126
3887.38394	0.0663254932
3885.95423	0.0662729964
3884.52452	0.0661820322
3883.09481	0.0660869554
3881.66510	0.0660239086
3880.23539	0.0660058558
3878.80567	0.0660132691
3877.37596	0.0660105869
3875.94625	0.0659730732
3874.51654	0.0659043789
3873.08683	0.0658343956
3871.65712	0.0657974035
3870.22741	0.0658065602
3868.79770	0.0658501759
3867.36799	0.0659164563
3865.93828	0.0660086274
3864.50857	0.0661240369
3863.07885	0.0662227347
3861.64914	0.0662329569
3860.21943	0.0660965741
3858.78972	0.0658105984
3857.36001	0.0654453188
3855.93030	0.0651542693
3854.50059	0.0651420578
3853.07088	0.0655028075
3851.64117	0.0660618544
3850.21146	0.0665340200
3848.78175	0.0667760372
3847.35203	0.0667922497
3845.92232	0.0666408762
3844.49261	0.0663894638
3843.06290	0.0661155954
3841.63319	0.0659086555
3840.20348	0.0658480972
3838.77377	0.0659581274
3837.34406	0.0661811307
3835.91435	0.0664158538
3834.48464	0.0665912032
3833.05493	0.0666947439
3831.62521	0.0667428896
3830.19550	0.0667427704
3828.76579	0.0666872337
3827.33608	0.0665748492
3825.90637	0.0664301217
3824.47666	0.0663025752
3823.04695	0.0662443191
3821.61724	0.0662854165
3820.18753	0.0664211661
3818.75782	0.0666194782
3817.32811	0.0668346062
3815.89839	0.0670161024
3814.46868	0.0671206266
3813.03897	0.0671293512
3811.60926	0.0670547038
3810.17955	0.0669301748
3808.74984	0.0667923689
3807.32013	0.0666664988
3805.89042	0.0665659755
3804.46071	0.0665060207
3803.03100	0.0665171593
3801.60129	0.0666351989
3800.17157	0.0668677911
3798.74186	0.0671722591
3797.31215	0.0674773380
3795.88244	0.0677237511
3794.45273	0.0678864270
3793.02302	0.0679675192
3791.59331	0.0679823756
3790.16360	0.0679494739
3788.73389	0.0678886995
3787.30418	0.0678248107
3785.87447	0.0677861050
3784.44475	0.0677980259
3783.01504	0.0678732619
3781.58533	0.0680026338
3780.15562	0.0681504235
3778.72591	0.0682640001
3777.29620	0.0682974160
3775.86649	0.0682380423
3774.43678	0.0681131184
3773.00707	0.0679769889
3771.57736	0.0678889677
3770.14765	0.0678859428
3768.71794	0.0679591894
3767.28822	0.0680578575
3765.85851	0.0681250766
3764.42880	0.0681355223
3762.99909	0.0681025460
3761.56938	0.0680600926
3760.13967	0.0680334195
3758.70996	0.0680159554
3757.28025	0.0679708794
3755.85054	0.0678633377
3754.42083	0.0676970035
3752.99112	0.0675255358
3751.56140	0.0674272925
3750.13169	0.0674493983
3748.70198	0.0675839633
3747.27227	0.0678072274
3745.84256	0.0681122094
3744.41285	0.0684732497
3742.98314	0.0688082054
3741.55343	0.0690225735
3740.12372	0.0690855160
3738.69401	0.0690523386
3737.26430	0.0690329224
3735.83458	0.0691244230
3734.40487	0.0693284646
3732.97516	0.0695433915
3731.54545	0.0696717724
3730.11574	0.0697044730
3728.68603	0.0696958750
3727.25632	0.0697098821
3725.82661	0.0697883070
3724.39690	0.0699385032
3722.96719	0.0701323077
3721.53748	0.0703213364
3720.10776	0.0704599023
3718.67805	0.0705219582
3717.24834	0.0705058798
3715.81863	0.0704388916
3714.38892	0.0703877211
3712.95921	0.0704521388
3711.52950	0.0707065538
3710.09979	0.0711095184
3708.67008	0.0715140775
3707.24037	0.0718004182
3705.81066	0.0719616041
3704.38094	0.0720732808
3702.95123	0.0722233206
3701.52152	0.0724539980
3700.09181	0.0727422163
3698.66210	0.0730270371
3697.23239	0.0732567608
3695.80268	0.0734189525
3694.37297	0.0735483244
3692.94326	0.0737264827
3691.51355	0.0740569234
3690.08384	0.0745879114
3688.65412	0.0752313584
3687.22441	0.0758103207
3685.79470	0.0762095973
3684.36499	0.0764346272
3682.93528	0.0765554607
3681.50557	0.0766503811
3680.07586	0.0767929554
3678.64615	0.0770569593
3677.21644	0.0774981976
3675.78673	0.0781171247
3674.35702	0.0788576379
3672.92730	0.0796753764
3671.49759	0.0805802345
3670.06788	0.0815842599
3668.63817	0.0826352313
3667.20846	0.0836398825
3665.77875	0.0845405236
3664.34904	0.0853488818
3662.91933	0.0861148760
3661.48962	0.0868868083
3660.05991	0.0876961872
3658.63020	0.0885543749
3657.20048	0.0894464776
3655.77077	0.0903292969
3654.34106	0.0911677033
3652.91135	0.0920032188
3651.48164	0.0929924473
3650.05193	0.0943299010
3648.62222	0.0960331634
3647.19251	0.0978395268
3645.76280	0.0994560570
3644.33309	0.1008156538
3642.90338	0.1020244285
3641.47366	0.1032066345
3640.04395	0.1044236422
3638.61424	0.1056702137
3637.18453	0.1069032550
3635.75482	0.1080809087
3634.32511	0.1092087701
3632.89540	0.1103810817
3631.46569	0.1117769405
3630.03598	0.1135417968
3628.60627	0.1155819744
3627.17656	0.1175527796
3625.74684	0.1191674396
3624.31713	0.1204217374
3622.88742	0.1215102971
3621.45771	0.1226531267
3620.02800	0.1239798740
3618.59829	0.1254823655
3617.16858	0.1270490438
3615.73887	0.1285706013
3614.30916	0.1300186813
3612.87945	0.1314455122
3611.44974	0.1329294145
3610.02003	0.1345072836
3608.59031	0.1361322999
3607.16060	0.1377023160
3605.73089	0.1391420662
3604.30118	0.1404529959
3602.87147	0.1416927129
3601.44176	0.1429269612
3600.01205	0.1442043483
3598.58234	0.1455548257
3597.15263	0.1469794959
3595.72292	0.1484345347
3594.29321	0.1498450041
3592.86349	0.1511701643
3591.43378	0.1524631232
3590.00407	0.1538514495
3588.57436	0.1554322094
3587.14465	0.1571613550
3585.71494	0.1588670760
3584.28523	0.1603989899
3582.85552	0.1617366672
3581.42581	0.1629577577
3579.99610	0.1641514152
3578.56639	0.1653693616
3577.13667	0.1666159481
3575.70696	0.1678590477
3574.27725	0.1690539420
3572.84754	0.1701844335
3571.41783	0.1712986827
3569.98812	0.1725078374
3568.55841	0.1739255339
3567.12870	0.1755666733
3565.69899	0.1773077548
3564.26928	0.1789790243
3562.83957	0.1804916561
3561.40985	0.1818545759
3559.98014	0.1831150949
3558.55043	0.1843190491
3557.12072	0.1855095327
3555.69101	0.1867271066
3554.26130	0.1879957318
3552.83159	0.1893125772
3551.40188	0.1906599253
3549.97217	0.1920322925
3548.54246	0.1934422702
3547.11275	0.1948972940
3545.68303	0.1963730454
3544.25332	0.1978181899
3542.82361	0.1991899014
3541.39390	0.2004829645
3539.96419	0.2017288804
3538.53448	0.2029698491
3537.10477	0.2042285502
3535.67506	0.2054926157
3534.24535	0.2067270279
3532.81564	0.2079084367
3531.38593	0.2090544403
3529.95621	0.2102186382
3528.52650	0.2114516646
3527.09679	0.2127623111
3525.66708	0.2141131163
3524.23737	0.2154523581
3522.80766	0.2167494446
3521.37795	0.2180010974
3519.94824	0.2192199975
3518.51853	0.2204231173
3517.08882	0.2216247469
3515.65911	0.2228304893
3514.22939	0.2240340412
3512.79968	0.2252210975
3511.36997	0.2263788879
3509.94026	0.2275014073
3508.51055	0.2285890579
3507.08084	0.2296506613
3505.65113	0.2307101190
3504.22142	0.2318037152
3502.79171	0.2329554111
3501.36200	0.2341513038
3499.93229	0.2353453785
3498.50257	0.2364941835
3497.07286	0.2375845313
3495.64315	0.2386268675
3494.21344	0.2396311909
3492.78373	0.2406001091
3491.35402	0.2415433377
3489.92431	0.2424871176
3488.49460	0.2434585690
3487.06489	0.2444627136
3485.63518	0.2454814613
3484.20547	0.2464935780
3482.77575	0.2474890202
3481.34604	0.2484634370
3479.91633	0.2494102567
3478.48662	0.2503252923
3477.05691	0.2512177527
3475.62720	0.2521042526
3474.19749	0.2529915571
3472.76778	0.2538709939
3471.33807	0.2547331452
3469.90836	0.2555827796
3468.47865	0.2564315498
3467.04893	0.2572797239
3465.61922	0.2581130862
3464.18951	0.2589196265
3462.75980	0.2597039044
3461.33009	0.2604801059
3459.90038	0.2612568736
3458.47067	0.2620337009
3457.04096	0.2628065348
3455.61125	0.2635706663
3454.18154	0.2643129528
3452.75183	0.2650150657
3451.32212	0.2656699717
3449.89240	0.2662964463
3448.46269	0.2669262886
3447.03298	0.2675782144
3445.60327	0.2682436705
3444.17356	0.2689042687
3442.74385	0.2695513070
3441.31414	0.2701852918
3439.88443	0.2708020210
3438.45472	0.2713887095
3437.02501	0.2719389200
3435.59530	0.2724640965
3434.16558	0.2729844153
3432.73587	0.2735096812
3431.30616	0.2740330398
3429.87645	0.2745401859
3428.44674	0.2750224769
3427.01703	0.2754817307
3425.58732	0.2759295702
3424.15761	0.2763863504
3422.72790	0.2768735886
3421.29819	0.2774002552
3419.86848	0.2779529691
3418.43876	0.2785017490
3417.00905	0.2790204287
3415.57934	0.2794985175
3414.14963	0.2799350023
3412.71992	0.2803284824
3411.29021	0.2806783617
3409.86050	0.2809945047
3408.43079	0.2813000679
3407.00108	0.2816182673
3405.57137	0.2819567323
3404.14166	0.2823044062
3402.71194	0.2826412320
3401.28223	0.2829510868
3399.85252	0.2832296193
3398.42281	0.2834875286
3396.99310	0.2837451100
3395.56339	0.2840166986
3394.13368	0.2842931151
3392.70397	0.2845412195
3391.27426	0.2847270072
3389.84455	0.2848459184
3388.41484	0.2849307656
3386.98512	0.2850303054
3385.55541	0.2851814330
3384.12570	0.2853943706
3382.69599	0.2856578529
3381.26628	0.2859491706
3379.83657	0.2862421572
3378.40686	0.2865145504
3376.97715	0.2867586017
3375.54744	0.2869863212
3374.11773	0.2872205675
3372.68802	0.2874744534
3371.25830	0.2877382934
3369.82859	0.2879836261
3368.39888	0.2881819308
3366.96917	0.2883235514
3365.53946	0.2884238660
3364.10975	0.2885147035
3362.68004	0.2886268198
3361.25033	0.2887749374
3359.82062	0.2889542878
3358.39091	0.2891528308
3356.96120	0.2893634140
3355.53148	0.2895852625
3354.10177	0.2898134589
3352.67206	0.2900325060
3351.24235	0.2902242839
3349.81264	0.2903840840
3348.38293	0.2905261517
3346.95322	0.2906737924
3345.52351	0.2908440828
3344.09380	0.2910405695
3342.66409	0.2912552357
3341.23438	0.2914732099
3339.80466	0.2916735113
3338.37495	0.2918356359
3336.94524	0.2919515669
3335.51553	0.2920386791
3334.08582	0.2921367586
3332.65611	0.2922919095
3331.22640	0.2925332487
3329.79669	0.2928599417
3328.36698	0.2932411730
3326.93727	0.2936281264
3325.50756	0.2939768136
3324.07784	0.2942700684
3322.64813	0.2945247293
3321.21842	0.2947769761
3319.78871	0.2950542569
3318.35900	0.2953621745
3316.92929	0.2956956327
3315.49958	0.2960627377
3314.06987	0.2964919508
3312.64016	0.2970094681
3311.21045	0.2976056635
3309.78074	0.2982230186
3308.35102	0.2987783849
3306.92131	0.2992048264
3305.49160	0.2994834781
3304.06189	0.2996474504
3302.63218	0.2997617722
3301.20247	0.2998922467
3299.77276	0.3000759482
3298.34305	0.3003081083
3296.91334	0.3005446494
3295.48363	0.3007219732
3294.05392	0.3007852733
3292.62421	0.3007122278
3291.19449	0.3005224168
3289.76478	0.3002670407
3288.33507	0.3000010550
3286.90536	0.2997544408
3285.47565	0.2995186150
3284.04594	0.2992587686
3282.61623	0.2989393473
3281.18652	0.2985455394
3279.75681	0.2980861962
3278.32710	0.2975805402
3276.89739	0.2970387638
3275.46767	0.2964499593
3274.03796	0.2957817316
3272.60825	0.2949941158
3271.17854	0.2940624952
3269.74883	0.2929950356
3268.31912	0.2918339074
3266.88941	0.2906374633
3265.45970	0.2894542813
3264.02999	0.2883081138
3262.60028	0.2872006595
3261.17057	0.2861241400
3259.74085	0.2850683928
3258.31114	0.2840204537
3256.88143	0.2829650939
3255.45172	0.2818939090
3254.02201	0.2808136344
3252.59230	0.2797467411
3251.16259	0.2787161469
3249.73288	0.2777310014
3248.30317	0.2767854035
3246.87346	0.2758689523
3245.44375	0.2749786973
3244.01403	0.2741214037
3242.58432	0.2733074129
3241.15461	0.2725431025
3239.72490	0.2718232870
3238.29519	0.2711300552
3236.86548	0.2704352140
3235.43577	0.2697101831
3234.00606	0.2689412534
3232.57635	0.2681386471
3231.14664	0.2673321962
3229.71693	0.2665560544
3228.28721	0.2658309042
3226.85750	0.2651563287
3225.42779	0.2645161450
3223.99808	0.2638896108
3222.56837	0.2632634938
3221.13866	0.2626354396
3219.70895	0.2620118856
3218.27924	0.2614005506
3216.84953	0.2608020902
3215.41982	0.2602057159
3213.99011	0.2595940530
3212.56039	0.2589528859
3211.13068	0.2582803965
3209.70097	0.2575896084
3208.27126	0.2568992972
3206.84155	0.2562243044
3205.41184	0.2555664182
3203.98213	0.2549159527
3202.55242	0.2542603314
3201.12271	0.2535925508
3199.69300	0.2529152930
3198.26329	0.2522360086
3196.83357	0.2515588701
3195.40386	0.2508791387
3193.97415	0.2501842678
3192.54444	0.2494618893
3191.11473	0.2487086356
3189.68502	0.2479357421
3188.25531	0.2471667081
3186.82560	0.2464255840
3185.39589	0.2457211167
3183.96618	0.2450375706
3182.53647	0.2443416417
3181.10675	0.2436020672
3179.67704	0.2428081036
3178.24733	0.2419725955
3176.81762	0.2411191314
3175.38791	0.2402663082
3173.95820	0.2394215763
3172.52849	0.2385876775
3171.09878	0.2377679944
3169.66907	0.2369671762
3168.23936	0.2361870259
3166.80965	0.2354238480
3165.37993	0.2346708477
3163.95022	0.2339223921
3162.52051	0.2331746370
3161.09080	0.2324270308
3159.66109	0.2316804826
3158.23138	0.2309373766
3156.80167	0.2301967740
3155.37196	0.2294522077
3153.94225	0.2286915630
3152.51254	0.2279037088
3151.08283	0.2270857245
3149.65311	0.2262459546
3148.22340	0.2254034877
3146.79369	0.2245839387
3145.36398	0.2238116562
3143.93427	0.2230984420
3142.50456	0.2224349231
3141.07485	0.2217883766
3139.64514	0.2211169451
3138.21543	0.2203933150
3136.78572	0.2196211368
3135.35601	0.2188338786
3133.92629	0.2180741429
3132.49658	0.2173681557
3131.06687	0.2167128921
3129.63716	0.2160834968
3128.20745	0.2154552490
3126.77774	0.2148228735
3125.34803	0.2142048031
3123.91832	0.2136279047
3122.48861	0.2131031007
3121.05890	0.2126110047
3119.62919	0.2121080160
3118.19948	0.2115503252
3116.76976	0.2109219134
3115.34005	0.2102446407
3113.91034	0.2095654756
3112.48063	0.2089265287
3111.05092	0.2083406597
3109.62121	0.2077887952
3108.19150	0.2072404623
3106.76179	0.2066809088
3105.33208	0.2061204463
3103.90237	0.2055815309
3102.47266	0.2050746679
3101.04294	0.2045883387
3099.61323	0.2041008472
3098.18352	0.2036039382
3096.75381	0.2031131238
3095.32410	0.2026549876
3093.89439	0.2022427022
3092.46468	0.2018633336
3091.03497	0.2014851719
3089.60526	0.2010798305
3088.17555	0.2006386667
3086.74584	0.2001718432
3085.31612	0.1996946037
3083.88641	0.1992120147
3082.45670	0.1987135857
3081.02699	0.1981803328
3079.59728	0.1975990832
3078.16757	0.1969743818
3076.73786	0.1963309348
3075.30815	0.1957028657
3073.87844	0.1951177269
3072.44873	0.1945821196
3071.01902	0.1940761060
3069.58930	0.1935627908
3068.15959	0.1930057108
3066.72988	0.1923874617
3065.30017	0.1917173713
3063.87046	0.1910251528
3062.44075	0.1903425902
3061.01104	0.1896866411
3059.58133	0.1890528202
3058.15162	0.1884219944
3056.72191	0.1877743751
3055.29220	0.1871017069
3053.86248	0.1864089817
3052.43277	0.1857094765
3051.00306	0.1850162596
3049.57335	0.1843364537
3048.14364	0.1836692095
3046.71393	0.1830065399
3045.28422	0.1823345572
3043.85451	0.1816380918
3042.42480	0.1809093654
3040.99509	0.1801577955
3039.56538	0.1794093549
3038.13566	0.1786941290
3036.70595	0.1780241728
3035.27624	0.1773824841
3033.84653	0.1767319739
3032.41682	0.1760403812
3030.98711	0.1753026098
3029.55740	0.1745423675
3028.12769	0.1737961620
3026.69798	0.1730935425
3025.26827	0.1724473685
3023.83856	0.1718567312
3022.40884	0.1713117808
3020.97913	0.1707978994
3019.54942	0.1702984124
3018.11971	0.1697974354
3016.69000	0.1692831218
3015.26029	0.1687473059
3013.83058	0.1681849957
3012.40087	0.1675945967
3010.97116	0.1669821888
3009.54145	0.1663648337
3008.11174	0.1657694727
3006.68202	0.1652249396
3005.25231	0.1647529602
3003.82260	0.1643617749
3002.39289	0.1640460342
3000.96318	0.1637911052
2999.53347	0.1635796428
2998.10376	0.1633968502
2996.67405	0.1632337868
2995.24434	0.1630866528
2993.81463	0.1629543602
2992.38492	0.1628389060
2990.95520	0.1627484262
2989.52549	0.1627003700
2988.09578	0.1627191305
2986.66607	0.1628254652
2985.23636	0.1630239487
2983.80665	0.1632979512
2982.37694	0.1636181176
2980.94723	0.1639580429
2979.51752	0.1643051952
2978.08781	0.1646608561
2976.65810	0.1650312841
2975.22838	0.1654192954
2973.79867	0.1658241898
2972.36896	0.1662450880
2970.93925	0.1666832715
2969.50954	0.1671362519
2968.07983	0.1675879806
2966.65012	0.1680039614
2965.22041	0.1683362871
2963.79070	0.1685369164
2962.36099	0.1685716063
2960.93128	0.1684274822
2959.50157	0.1681116819
2958.07185	0.1676440984
2956.64214	0.1670509428
2955.21243	0.1663637608
2953.78272	0.1656216979
2952.35301	0.1648728997
2950.92330	0.1641687155
2949.49359	0.1635519862
2948.06388	0.1630462557
2946.63417	0.1626555771
2945.20446	0.1623736918
2943.77475	0.1621948034
2942.34503	0.1621171534
2940.91532	0.1621382087
2939.48561	0.1622494459
2938.05590	0.1624354422
2936.62619	0.1626754552
2935.19648	0.1629425734
2933.76677	0.1631992608
2932.33706	0.1633985490
2930.90735	0.1634942740
2929.47764	0.1634579152
2928.04793	0.1632883400
2926.61821	0.1630058587
2925.18850	0.1626334786
2923.75879	0.1621803343
2922.32908	0.1616351753
2920.89937	0.1609736085
2919.46966	0.1601708233
2918.03995	0.1592132598
2916.61024	0.1581048220
2915.18053	0.1568697989
2913.75082	0.1555515230
2912.32111	0.1542056799
2910.89139	0.1528902352
2909.46168	0.1516532600
2908.03197	0.1505240798
2906.60226	0.1495114565
2905.17255	0.1486086398
2903.74284	0.1478013843
2902.31313	0.1470742822
2900.88342	0.1464115232
2899.45371	0.1457951814
2898.02400	0.1452044845
2896.59429	0.1446207613
2895.16457	0.1440361291
2893.73486	0.1434589922
2892.30515	0.1429126412
2890.87544	0.1424243301
2889.44573	0.1420136690
2888.01602	0.1416857243
2886.58631	0.1414342970
2885.15660	0.1412507445
2883.72689	0.1411311030
2882.29718	0.1410770416
2880.86747	0.1410879344
2879.43775	0.1411489844
2878.00804	0.1412225366
2876.57833	0.1412515640
2875.14862	0.1411753595
2873.71891	0.1409504712
2872.28920	0.1405673921
2870.85949	0.1400508285
2869.42978	0.1394485235
2868.00007	0.1388140321
2866.57036	0.1381934285
2865.14065	0.1376201808
2863.71093	0.1371152550
2862.28122	0.1366875917
2860.85151	0.1363326609
2859.42180	0.1360325515
2857.99209	0.1357577294
2856.56238	0.1354726851
2855.13267	0.1351406276
2853.70296	0.1347253174
2852.27325	0.1341926008
2850.84354	0.1335133165
2849.41383	0.1326750368
2847.98411	0.1316941977
2846.55440	0.1306235492
2845.12469	0.1295419633
2843.69498	0.1285299212
2842.26527	0.1276397705
2840.83556	0.1268807650
2839.40585	0.1262261420
2837.97614	0.1256364286
2836.54643	0.1250828952
2835.11672	0.1245562732
2833.68701	0.1240613610
2832.25729	0.1236049011
2830.82758	0.1231877878
2829.39787	0.1228056327
2827.96816	0.1224513277
2826.53845	0.1221180633
2825.10874	0.1217990667
2823.67903	0.1214882508
2822.24932	0.1211816221
2820.81961	0.1208800003
2819.38990	0.1205889732
2817.96019	0.1203159317
2816.53047	0.1200649738
2815.10076	0.1198318303
2813.67105	0.1196037531
2812.24134	0.1193633899
2810.81163	0.1190979332
2809.38192	0.1188051030
2807.95221	0.1184963509
2806.52250	0.1181939319
2805.09279	0.1179217845
2803.66308	0.1176944077
2802.23337	0.1175086722
2800.80366	0.1173439100
2799.37394	0.1171704307
2797.94423	0.1169655994
2796.51452	0.1167246625
2795.08481	0.1164606065
2793.65510	0.1161906272
2792.22539	0.1159217209
2790.79568	0.1156476438
2789.36597	0.1153559163
2787.93626	0.1150426939
2786.50655	0.1147180274
2785.07684	0.1144011170
2783.64712	0.1141108945
2782.21741	0.1138580814
2780.78770	0.1136429012
2779.35799	0.1134557351
2777.92828	0.1132778898
2776.49857	0.1130871773
2775.06886	0.1128668487
2773.63915	0.1126138493
2772.20944	0.1123410836
2770.77973	0.1120658740
2769.35002	0.1117961258
2767.92030	0.1115252748
2766.49059	0.1112415567
2765.06088	0.1109433472
2763.63117	0.1106462106
2762.20146	0.1103735417
2760.77175	0.1101398319
2759.34204	0.1099402606
2757.91233	0.1097569838
2756.48262	0.1095743105
2755.05291	0.1093894839
2753.62320	0.1092094034
2752.19348	0.1090378091
2750.76377	0.1088649184
2749.33406	0.1086709872
2747.90435	0.1084392890
2746.47464	0.1081695631
2745.04493	0.1078796908
2743.61522	0.1075961888
2742.18551	0.1073382199
2740.75580	0.1071071029
2739.32609	0.1068877950
2737.89638	0.1066605896
2736.46666	0.1064145193
2735.03695	0.1061548367
2733.60724	0.1058986858
2732.17753	0.1056638435
2730.74782	0.1054579690
2729.31811	0.1052741930
2727.88840	0.1050958037
2726.45869	0.1049053594
2725.02898	0.1046911478
2723.59927	0.1044507027
2722.16956	0.1041884422
2720.73984	0.1039137095
2719.31013	0.1036370546
2717.88042	0.1033682525
2716.45071	0.1031128466
2715.02100	0.1028699651
2713.59129	0.1026317701
2712.16158	0.1023882627
2710.73187	0.1021338627
2709.30216	0.1018723398
2707.87245	0.1016153619
2706.44274	0.1013758630
2705.01302	0.1011594310
2703.58331	0.1009629592
2702.15360	0.1007778794
2700.72389	0.1005958468
2699.29418	0.1004135311
2697.86447	0.1002312601
2696.43476	0.1000506580
2695.00505	0.0998723134
2693.57534	0.0996953845
2692.14563	0.0995177776
2690.71592	0.0993379951
2689.28620	0.0991567224
2687.85649	0.0989772826
2686.42678	0.0988058224
2684.99707	0.0986480042
2683.56736	0.0985052437
2682.13765	0.0983727574
2680.70794	0.0982401520
2679.27823	0.0980958417
2677.84852	0.0979307219
2676.41881	0.0977417454
2674.98910	0.0975322649
2673.55938	0.0973102897
2672.12967	0.0970857441
2670.69996	0.0968675539
2669.27025	0.0966627672
2667.84054	0.0964760482
2666.41083	0.0963085070
2664.98112	0.0961565375
2663.55141	0.0960118547
2662.12170	0.0958629549
2660.69199	0.0957017168
2659.26228	0.0955266654
2657.83256	0.0953441411
2656.40285	0.0951644033
2654.97314	0.0949955285
2653.54343	0.0948401839
2652.11372	0.0946960971
2650.68401	0.0945613310
2649.25430	0.0944361240
2647.82459	0.0943223685
2646.39488	0.0942193568
2644.96517	0.0941204876
2643.53546	0.0940139815
2642.10575	0.0938874558
2640.67603	0.0937343687
2639.24632	0.0935573876
2637.81661	0.0933688506
2636.38690	0.0931852758
2634.95719	0.0930216610
2633.52748	0.0928851292
2632.09777	0.0927724615
2630.66806	0.0926733389
2629.23835	0.0925750732
2627.80864	0.0924680233
2626.37893	0.0923478976
2624.94921	0.0922160298
2623.51950	0.0920786336
2622.08979	0.0919455364
2620.66008	0.0918260738
2619.23037	0.0917246714
2617.80066	0.0916367546
2616.37095	0.0915518254
2614.94124	0.0914603993
2613.51153	0.0913604274
2612.08182	0.0912578255
2610.65211	0.0911605209
2609.22239	0.0910727158
2607.79268	0.0909935758
2606.36297	0.0909197852
2604.93326	0.0908480510
2603.50355	0.0907754973
2602.07384	0.0906992555
2600.64413	0.0906175971
2599.21442	0.0905325860
2597.78471	0.0904519185
2596.35500	0.0903843716
2594.92529	0.0903345570
2593.49557	0.0902983174
2592.06586	0.0902636796
2590.63615	0.0902181789
2589.20644	0.0901563391
2587.77673	0.0900826231
2586.34702	0.0900085047
2584.91731	0.0899446234
2583.48760	0.0898950472
2582.05789	0.0898569748
2580.62818	0.0898242816
2579.19847	0.0897921920
2577.76875	0.0897592753
2576.33904	0.0897257030
2574.90933	0.0896905661
2573.47962	0.0896520615
2572.04991	0.0896085650
2570.62020	0.0895616338
2569.19049	0.0895162076
2567.76078	0.0894782841
2566.33107	0.0894517601
2564.90136	0.0894365236
2563.47165	0.0894298479
2562.04193	0.0894305483
2560.61222	0.0894404054
2559.18251	0.0894624144
2557.75280	0.0894957781
2556.32309	0.0895344615
2554.89338	0.0895696208
2553.46367	0.0895974264
2552.03396	0.0896217674
2550.60425	0.0896517113
2549.17454	0.0896918997
2547.74483	0.0897376984
2546.31511	0.0897769406
2544.88540	0.0897991583
2543.45569	0.0898048580
2542.02598	0.0898061618
2540.59627	0.0898182914
2539.16656	0.0898488238
2537.73685	0.0898931101
2536.30714	0.0899392739
2534.87743	0.0899794027
2533.44772	0.0900148749
2532.01801	0.0900543407
2530.58829	0.0901047289
2529.15858	0.0901672021
2527.72887	0.0902362093
2526.29916	0.0903057158
2524.86945	0.0903716907
2523.43974	0.0904322863
2522.01003	0.0904859081
2520.58032	0.0905316919
2519.15061	0.0905704349
2517.72090	0.0906049386
2516.29119	0.0906398296
2514.86147	0.0906793177
2513.43176	0.0907269418
2512.00205	0.0907827988
2510.57234	0.0908431709
2509.14263	0.0909008905
2507.71292	0.0909508392
2506.28321	0.0909942463
2504.85350	0.0910405070
2503.42379	0.0911004916
2501.99408	0.0911784992
2500.56437	0.0912672132
2499.13465	0.0913523436
2497.70494	0.0914200395
2496.27523	0.0914633423
2494.84552	0.0914852247
2493.41581	0.0914978161
2491.98610	0.0915178210
2490.55639	0.0915611312
2489.12668	0.0916351900
2487.69697	0.0917350948
2486.26726	0.0918449089
2484.83755	0.0919446126
2483.40784	0.0920189321
2481.97812	0.0920626074
2480.54841	0.0920805559
2479.11870	0.0920847505
2477.68899	0.0920904800
2476.25928	0.0921110511
2474.82957	0.0921539739
2473.39986	0.0922185630
2471.97015	0.0922958702
2470.54044	0.0923743844
2469.11073	0.0924448371
2467.68102	0.0925048217
2466.25130	0.0925574824
2464.82159	0.0926070437
2463.39188	0.0926529914
2461.96217	0.0926898718
2460.53246	0.0927113444
2459.10275	0.0927162170
2457.67304	0.0927118585
2456.24333	0.0927094221
2454.81362	0.0927181393
2453.38391	0.0927409902
2451.95420	0.0927764028
2450.52448	0.0928213745
2449.09477	0.0928735584
2447.66506	0.0929286405
2446.23535	0.0929796845
2444.80564	0.0930202529
2443.37593	0.0930488855
2441.94622	0.0930707604
2440.51651	0.0930930823
2439.08680	0.0931177810
2437.65709	0.0931396559
2436.22738	0.0931508243
2434.79766	0.0931477100
2433.36795	0.0931345895
2431.93824	0.0931202546
2430.50853	0.0931118503
2429.07882	0.0931119770
2427.64911	0.0931203514
2426.21940	0.0931358710
2424.78969	0.0931593850
2423.35998	0.0931906998
2421.93027	0.0932280123
2420.50056	0.0932673812
2419.07084	0.0933042169
2417.64113	0.0933348015
2416.21142	0.0933562368
2414.78171	0.0933655128
2413.35200	0.0933598354
2411.92229	0.0933380127
2410.49258	0.0933028087
2409.06287	0.0932598412
2407.63316	0.0932162032
2406.20345	0.0931774452
2404.77374	0.0931461677
2403.34402	0.0931228846
2401.91431	0.0931075811
2400.48460	0.0930996314
2399.05489	0.0930964202
2397.62518	0.0930927992
2396.19547	0.0930825993
2394.76576	0.0930610746
2393.33605	0.0930274948
2391.90634	0.0929839835
2390.47663	0.0929329321
2389.04692	0.0928737819
2387.61720	0.0928027779
2386.18749	0.0927152857
2384.75778	0.0926074609
2383.32807	0.0924778879
2381.89836	0.0923262239
2380.46865	0.0921531096
2379.03894	0.0919596478
2377.60923	0.0917471200
2376.17952	0.0915161297
2374.74981	0.0912641212
2373.32010	0.0909864604
2371.89038	0.0906819031
2370.46067	0.0903619006
2369.03096	0.0900543705
2367.60125	0.0897948965
2366.17154	0.0896084383
2364.74183	0.0894973725
2363.31212	0.0894482583
2361.88241	0.0894497856
2360.45270	0.0895069167
2359.02299	0.0896325856
2357.59328	0.0898298472
2356.16356	0.0900753289
2354.73385	0.0903187469
2353.30414	0.0905035064
2351.87443	0.0905947685
2350.44472	0.0905867964
2349.01501	0.0904965550
2347.58530	0.0903523713
2346.15559	0.0901880711
2344.72588	0.0900368840
2343.29617	0.0899221748
2341.86646	0.0898469090
2340.43674	0.0897959173
2339.00703	0.0897480398
2337.57732	0.0896886885
2336.14761	0.0896136537
2334.71790	0.0895318910
2333.28819	0.0894638151
2331.85848	0.0894322321
2330.42877	0.0894464776
2328.99906	0.0894957483
2327.56935	0.0895592123
2326.13964	0.0896229148
2324.70993	0.0896880850
2323.28021	0.0897629037
2321.85050	0.0898481533
2320.42079	0.0899313465
2318.99108	0.0899934098
2317.56137	0.0900209919
2316.13166	0.0900142118
2314.70195	0.0899850652
2313.27224	0.0899492726
2311.84253	0.0899180099
2310.41282	0.0898952410
2308.98311	0.0898788124
2307.55339	0.0898653120
2306.12368	0.0898524523
2304.69397	0.0898397788
2303.26426	0.0898268595
2301.83455	0.0898127556
2300.40484	0.0897952467
2298.97513	0.0897709951
2297.54542	0.0897351876
2296.11571	0.0896850601
2294.68600	0.0896236748
2293.25629	0.0895610303
2291.82657	0.0895091742
2290.39686	0.0894724950
2288.96715	0.0894439667
2287.53744	0.0894087255
2286.10773	0.0893545374
2284.67802	0.0892808959
2283.24831	0.0891981423
2281.81860	0.0891205221
2280.38889	0.0890557617
2278.95918	0.0890012607
2277.52947	0.0889472216
2276.09975	0.0888849869
2274.67004	0.0888123438
2273.24033	0.0887339413
2271.81062	0.0886562765
2270.38091	0.0885830373
2268.95120	0.0885144472
2267.52149	0.0884508789
2266.09178	0.0883937329
2264.66207	0.0883439183
2263.23236	0.0882977620
2261.80265	0.0882476121
2260.37293	0.0881861150
2258.94322	0.0881122574
2257.51351	0.0880324543
2256.08380	0.0879553333
2254.65409	0.0878857598
2253.22438	0.0878234282
2251.79467	0.0877657309
2250.36496	0.0877126902
2248.93525	0.0876688510
2247.50554	0.0876386315
2246.07583	0.0876212418
2244.64611	0.0876080990
2243.21640	0.0875868201
2241.78669	0.0875494182
2240.35698	0.0874966606
2238.92727	0.0874374583
2237.49756	0.0873812959
2236.06785	0.0873324201
2234.63814	0.0872885585
2233.20843	0.0872445032
2231.77872	0.0871957690
2230.34901	0.0871409401
2228.91929	0.0870802030
2227.48958	0.0870151073
2226.05987	0.0869465396
2224.63016	0.0868740603
2223.20045	0.0867962912
2221.77074	0.0867124572
2220.34103	0.0866255537
2218.91132	0.0865427703
2217.48161	0.0864723772
2216.05190	0.0864187479
2214.62219	0.0863778442
2213.19247	0.0863393769
2211.76276	0.0862916037
2210.33305	0.0862272233
2208.90334	0.0861458704
2207.47363	0.0860530138
2206.04392	0.0859564245
2204.61421	0.0858632326
2203.18450	0.0857772231
2201.75479	0.0856984407
2200.32508	0.0856242850
2198.89537	0.0855515227
2197.46565	0.0854784623
2196.03594	0.0854066387
2194.60623	0.0853397176
2193.17652	0.0852810889
2191.74681	0.0852297693
2190.31710	0.0851800367
2188.88739	0.0851238221
2187.45768	0.0850560889
2186.02797	0.0849775746
2184.59826	0.0848928019
2183.16855	0.0848067626
2181.73883	0.0847220868
2180.30912	0.0846399441
2178.87941	0.0845626965
2177.44970	0.0844934210
2176.01999	0.0844339281
2174.59028	0.0843828693
2173.16057	0.0843362808
2171.73086	0.0842895731
2170.30115	0.0842385367
2168.87144	0.0841804296
2167.44173	0.0841142237
2166.01202	0.0840410292
2164.58230	0.0839632228
2163.15259	0.0838816985
2161.72288	0.0837953910
2160.29317	0.0837016851
2158.86346	0.0836012810
2157.43375	0.0835011601
2156.00404	0.0834118500
2154.57433	0.0833416507
2153.14462	0.0832893103
2151.71491	0.0832430646
2150.28520	0.0831858739
2148.85548	0.0831050277
2147.42577	0.0829988122
2145.99606	0.0828765482
2144.56635	0.0827542320
2143.13664	0.0826474428
2141.70693	0.0825668201
2140.27722	0.0825148225
2138.84751	0.0824836195
2137.41780	0.0824560151
2135.98809	0.0824110731
2134.55838	0.0823357180
2133.12866	0.0822326913
2131.69895	0.0821190625
2130.26924	0.0820140839
2128.83953	0.0819259509
2127.40982	0.0818483084
2125.98011	0.0817684010
2124.55040	0.0816795081
2123.12069	0.0815863535
2121.69098	0.0814998373
2120.26127	0.0814277008
2118.83156	0.0813676938
2117.40184	0.0813104436
2115.97213	0.0812457353
2114.54242	0.0811706781
2113.11271	0.0810908005
2111.68300	0.0810152069
2110.25329	0.0809498280
2108.82358	0.0808918551
2107.39387	0.0808329806
2105.96416	0.0807667822
2104.53445	0.0806943327
2103.10474	0.0806223378
2101.67502	0.0805566385
2100.24531	0.0804956928
2098.81560	0.0804316700
2097.38589	0.0803573132
2095.95618	0.0802725405
2094.52647	0.0801835805
2093.09676	0.0800988376
2091.66705	0.0800221413
2090.23734	0.0799518749
2088.80763	0.0798832625
2087.37792	0.0798126683
2085.94820	0.0797392949
2084.51849	0.0796632543
2083.08878	0.0795843005
2081.65907	0.0795010105
2080.22936	0.0794133618
2078.79965	0.0793246329
2077.36994	0.0792400017
2075.94023	0.0791627094
2074.51052	0.0790919289
2073.08081	0.0790227056
2071.65110	0.0789501742
2070.22138	0.0788725987
2068.79167	0.0787905678
2067.36196	0.0787054747
2065.93225	0.0786172971
2064.50254	0.0785279647
2063.07283	0.0784434155
2061.64312	0.0783738717
2060.21341	0.0783274248
2058.78370	0.0783040151
2057.35399	0.0782927945
2055.92428	0.0782766491
2054.49456	0.0782401338
2053.06485	0.0781756043
2051.63514	0.0780850276
2050.20543	0.0779763088
2048.77572	0.0778590515
2047.34601	0.0777414143
2045.91630	0.0776293799
2044.48659	0.0775279328
2043.05688	0.0774409845
2041.62717	0.0773699284
2040.19746	0.0773121119
2038.76774	0.0772603080
2037.33803	0.0772050768
2035.90832	0.0771391615
2034.47861	0.0770601705
2033.04890	0.0769710317
2031.61919	0.0768771172
2030.18948	0.0767837539
2028.75977	0.0766946673
2027.33006	0.0766117498
2025.90035	0.0765353590
2024.47064	0.0764645711
2023.04092	0.0763985440
2021.61121	0.0763362944
2020.18150	0.0762776360
2018.75179	0.0762223452
2017.32208	0.0761697441
2015.89237	0.0761188418
2014.46266	0.0760674328
2013.03295	0.0760124773
2011.60324	0.0759503096
2010.17353	0.0758786276
2008.74382	0.0757987946
2007.31411	0.0757165030
2005.88439	0.0756403059
2004.45468	0.0755784065
2003.02497	0.0755347610
2001.59526	0.0755065158
2000.16555	0.0754829496
1998.73584	0.0754489452
1997.30613	0.0753938258
1995.87642	0.0753186643
1994.44671	0.0752374530
1993.01700	0.0751684159
1991.58729	0.0751220062
1990.15757	0.0750952587
1988.72786	0.0750780627
1987.29815	0.0750643387
1985.86844	0.0750558451
1984.43873	0.0750572011
1983.00902	0.0750684291
1981.57931	0.0750822723
1980.14960	0.0750869513
1978.71989	0.0750731975
1977.29018	0.0750384256
1975.86047	0.0749881566
1974.43075	0.0749330595
1973.00104	0.0748837516
1971.57133	0.0748457387
1970.14162	0.0748183355
1968.71191	0.0747979507
1967.28220	0.0747824535
1965.85249	0.0747729167
1964.42278	0.0747704580
1962.99307	0.0747734755
1961.56336	0.0747775584
1960.13365	0.0747776255
1958.70393	0.0747707039
1957.27422	0.0747577250
1955.84451	0.0747438595
1954.41480	0.0747362077
1952.98509	0.0747375265
1951.55538	0.0747426003
1950.12567	0.0747393444
1948.69596	0.0747188330
1947.26625	0.0746832043
1945.83654	0.0746476054
1944.40683	0.0746319890
1942.97711	0.0746503994
1941.54740	0.0747032762
1940.11769	0.0747773498
1938.68798	0.0748522282
1937.25827	0.0749094039
1935.82856	0.0749387816
1934.39885	0.0749421641
1932.96914	0.0749297962
1931.53943	0.0749116242
1930.10972	0.0748912916
1928.68001	0.0748668686
1927.25029	0.0748378336
1925.82058	0.0748097897
1924.39087	0.0747919828
1922.96116	0.0747911260
1921.53145	0.0748073906
1920.10174	0.0748349130
1918.67203	0.0748634860
1917.24232	0.0748824328
1915.81261	0.0748856887
1914.38290	0.0748765543
1912.95319	0.0748672709
1911.52347	0.0748710185
1910.09376	0.0748941824
1908.66405	0.0749332756
1907.23434	0.0749800652
1905.80463	0.0750278458
1904.37492	0.0750744566
1902.94521	0.0751204938
1901.51550	0.0751668736
1900.08579	0.0752134770
1898.65608	0.0752581730
1897.22637	0.0752955452
1895.79665	0.0753204525
1894.36694	0.0753333792
1892.93723	0.0753435716
1891.50752	0.0753646642
1890.07781	0.0754047856
1888.64810	0.0754608959
1887.21839	0.0755209923
1885.78868	0.0755714476
1884.35897	0.0756043792
1882.92926	0.0756210461
1881.49955	0.0756318271
1880.06983	0.0756506249
1878.64012	0.0756850764
1877.21041	0.0757276639
1875.78070	0.0757601112
1874.35099	0.0757677257
1872.92128	0.0757545382
1871.49157	0.0757445469
1870.06186	0.0757690519
1868.63215	0.0758455247
1867.20244	0.0759645551
1865.77273	0.0760976225
1864.34301	0.0762184560
1862.91330	0.0763162971
1861.48359	0.0763951167
1860.05388	0.0764648169
1858.62417	0.0765320882
1857.19446	0.0765955374
1855.76475	0.0766477287
1854.33504	0.0766830891
1852.90533	0.0767012164
1851.47562	0.0767047405
1850.04591	0.0766981244
1848.61619	0.0766918585
1847.18648	0.0767081976
1845.75677	0.0767742991
1844.32706	0.0768979788
1842.89735	0.0770517960
1841.46764	0.0771913528
1840.03793	0.0772912651
1838.60822	0.0773552284
1837.17851	0.0774001777
1835.74880	0.0774380192
1834.31909	0.0774732232
1832.88938	0.0775117800
1831.45966	0.0775674805
1830.02995	0.0776554495
1828.60024	0.0777800828
1827.17053	0.0779318288
1825.74082	0.0780938268
1824.31111	0.0782507956
1822.88140	0.0783903971
1821.45169	0.0785052925
1820.02198	0.0785953626
1818.59227	0.0786683634
1817.16256	0.0787346140
1815.73284	0.0788019821
1814.30313	0.0788777173
1812.87342	0.0789710432
1811.44371	0.0790885761
1810.01400	0.0792236626
1808.58429	0.0793541893
1807.15458	0.0794582739
1805.72487	0.0795314759
1804.29516	0.0795887485
1802.86545	0.0796510577
1801.43574	0.0797313303
1800.00602	0.0798289701
1798.57631	0.0799365267
1797.14660	0.0800488442
1795.71689	0.0801709965
1794.28718	0.0803193152
1792.85747	0.0805126727
1791.42776	0.0807517245
1789.99805	0.0810069442
1788.56834	0.0812370926
1787.13863	0.0814202428
1785.70892	0.0815652683
1784.27920	0.0816975981
1782.84949	0.0818359032
1781.41978	0.0819782838
1779.99007	0.0821102113
1778.56036	0.0822229981
1777.13065	0.0823246390
1775.70094	0.0824383274
1774.27123	0.0825993195
1772.84152	0.0828443468
1771.41181	0.0831821114
1769.98210	0.0835701525
1768.55238	0.0839398876
1767.12267	0.0842518285
1765.69296	0.0845170021
1764.26325	0.0847770199
1762.83354	0.0850728080
1761.40383	0.0854231864
1759.97412	0.0858227611
1758.54441	0.0862524807
1757.11470	0.0866914764
1755.68499	0.0871255323
1754.25528	0.0875608847
1752.82556	0.0880348980
1751.39585	0.0886035785
1749.96614	0.0892943144
1748.53643	0.0900643393
1747.10672	0.0908294767
1745.67701	0.0915405825
1744.24730	0.0922078714
1742.81759	0.0928618610
1741.38788	0.0935095474
1739.95817	0.0941343084
1738.52846	0.0947320908
1737.09874	0.0953393728
1735.66903	0.0960224420
1734.23932	0.0968324840
1732.80961	0.0977589861
1731.37990	0.0987402126
1729.95019	0.0997258648
1728.52048	0.1007126570
1727.09077	0.1017239690
1725.66106	0.1027781218
1724.23135	0.1038740575
1722.80164	0.1050066575
1721.37192	0.1062060446
1719.94221	0.1075729728
1718.51250	0.1092498824
1717.08279	0.1112729236
1715.65308	0.1134338528
1714.22337	0.1154261157
1712.79366	0.1171262860
1711.36395	0.1186260730
1709.93424	0.1200887263
1708.50453	0.1216426343
1707.07482	0.1233567446
1705.64510	0.1252750456
1704.21539	0.1274782419
1702.78568	0.1301265359
1701.35597	0.1334314793
1699.92626	0.1375056952
1698.49655	0.1421489567
1697.06684	0.1468385160
1695.63713	0.1510723531
1694.20742	0.1546679139
1692.77771	0.1577139497
1691.34800	0.1603982747
1689.91828	0.1629343927
1688.48857	0.1655860245
1687.05886	0.1686950773
1685.62915	0.1725582778
1684.19944	0.1770793945
1682.76973	0.1816269308
1681.34002	0.1855872720
1679.91031	0.1888973862
1678.48060	0.1918860078
1677.05089	0.1949002594
1675.62118	0.1981233060
1674.19147	0.2015806586
1672.76175	0.2052479982
1671.33204	0.2091192901
1669.90233	0.2131431550
1668.47262	0.2171635330
1667.04291	0.2210246176
1665.61320	0.2247141153
1664.18349	0.2283252180
1662.75378	0.2318585962
1661.32407	0.2351028472
1659.89436	0.2377589494
1658.46465	0.2396527678
1657.03493	0.2407737076
1655.60522	0.2411445230
1654.17551	0.2407258600
1652.74580	0.2395105809
1651.31609	0.2376842648
1649.88638	0.2355110943
1648.45667	0.2331192493
1647.02696	0.2305559814
1645.59725	0.2279482484
1644.16754	0.2254881412
1642.73783	0.2232684791
1641.30811	0.2212059796
1639.87840	0.2191026062
1638.44869	0.2167487592
1637.01898	0.2140426338
1635.58927	0.2110944539
1634.15956	0.2081425935
1632.72985	0.2052965909
1631.30014	0.2024471611
1629.87043	0.1993794888
1628.44072	0.1958783120
1627.01101	0.1917909533
1625.58129	0.1871083677
1624.15158	0.1820165515
1622.72187	0.1767928302
1621.29216	0.1715985686
1619.86245	0.1663935781
1618.43274	0.1610694677
1617.00303	0.1556882113
1615.57332	0.1505689621
1614.14361	0.1460612416
1612.71390	0.1422558427
1611.28419	0.1389799118
1609.85447	0.1360079050
1608.42476	0.1332314759
1606.99505	0.1306783408
1605.56534	0.1284189820
1604.13563	0.1264728606
1602.70592	0.1248034611
1601.27621	0.1233699471
1599.84650	0.1221521124
1598.41679	0.1211345717
1596.98708	0.1202899739
1595.55737	0.1195939332
1594.12765	0.1190438271
1592.69794	0.1186523661
1591.26823	0.1184238866
1589.83852	0.1183476299
1588.40881	0.1184139624
1586.97910	0.1186228395
1585.54939	0.1189686134
1584.11968	0.1194233373
1582.68997	0.1199514717
1581.26026	0.1205461249
1579.83055	0.1212492064
1578.40083	0.1221237555
1576.97112	0.1231866181
1575.54141	0.1243650019
1574.11170	0.1255555302
1572.68199	0.1267351061
1571.25228	0.1279820353
1569.82257	0.1293814927
1568.39286	0.1309144497
1566.96315	0.1324451417
1565.53344	0.1338410825
1564.10373	0.1351048648
1562.67401	0.1364204437
1561.24430	0.1381325871
1559.81459	0.1405886114
1558.38488	0.1437120885
1556.95517	0.1468035281
1555.52546	0.1492380798
1554.09575	0.1509854943
1552.66604	0.1522827893
1551.23633	0.1532766372
1549.80662	0.1539658606
1548.37691	0.1542841792
1546.94719	0.1541887671
1545.51748	0.1536754817
1544.08777	0.1527303159
1542.65806	0.1513102055
1541.22835	0.1494564861
1539.79864	0.1474254876
1538.36893	0.1455076039
1536.93922	0.1437559128
1535.50951	0.1420408934
1534.07980	0.1402406693
1532.65009	0.1383340508
1531.22037	0.1363790780
1529.79066	0.1344339699
1528.36095	0.1325014681
1526.93124	0.1305420697
1525.50153	0.1285258383
1524.07182	0.1264719516
1522.64211	0.1244498715
1521.21240	0.1225411817
1519.78269	0.1207823157
1518.35298	0.1191337928
1516.92327	0.1175043583
1515.49356	0.1158062592
1514.06384	0.1139886454
1512.63413	0.1120143756
1511.20442	0.1098040789
1509.77471	0.1072210670
1508.34500	0.1042083204
1506.91529	0.1010622606
1505.48558	0.0983614922
1504.05587	0.0963879451
1502.62616	0.0949493051
1501.19645	0.0937228724
1499.76674	0.0924964324
1498.33702	0.0912126377
1496.90731	0.0899342149
1495.47760	0.0887507051
1494.04789	0.0876904577
1492.61818	0.0867228284
1491.18847	0.0858236477
1489.75876	0.0850210190
1488.32905	0.0843829364
1486.89934	0.0839535221
1485.46963	0.0837121084
1484.03992	0.0835994929
1482.61020	0.0835648850
1481.18049	0.0835874155
1479.75078	0.0836754739
1478.32107	0.0838634595
1476.89136	0.0842110962
1475.46165	0.0847906470
1474.03194	0.0856276229
1472.60223	0.0866180956
1471.17252	0.0875539482
1469.74281	0.0882750154
1468.31310	0.0887545198
1466.88338	0.0890547112
1465.45367	0.0892537460
1464.02396	0.0894038901
1462.59425	0.0895291492
1461.16454	0.0896516442
1459.73483	0.0898146331
1458.30512	0.0900631920
1456.87541	0.0903733447
1455.44570	0.0906211063
1454.01599	0.0906825364
1452.58628	0.0905289799
1451.15656	0.0902018994
1449.72685	0.0897594690
1448.29714	0.0892569572
1446.86743	0.0887418762
1445.43772	0.0882417113
1444.00801	0.0877539739
1442.57830	0.0872536153
1441.14859	0.0867116079
1439.71888	0.0861119702
1438.28917	0.0854663625
1436.85946	0.0848205090
1435.42974	0.0842402950
1434.00003	0.0837789029
1432.57032	0.0834599361
1431.14061	0.0832873657
1429.71090	0.0832578018
1428.28119	0.0833592191
1426.85148	0.0835662037
1425.42177	0.0838468820
1423.99206	0.0841792971
1422.56235	0.0845651180
1421.13264	0.0850275308
1419.70292	0.0855877772
1418.27321	0.0862299055
1416.84350	0.0868941098
1415.41379	0.0875180662
1413.98408	0.0880775377
1412.55437	0.0885877013
1411.12466	0.0890785754
1409.69495	0.0895720348
1408.26524	0.0900706425
1406.83553	0.0905579031
1405.40582	0.0910016894
1403.97610	0.0913588628
1402.54639	0.0915869847
1401.11668	0.0916612148
1399.68697	0.0915853903
1398.25726	0.0913875178
1396.82755	0.0911027566
1395.39784	0.0907568634
1393.96813	0.0903591961
1392.53842	0.0899071470
1391.10871	0.0893902183
1389.67900	0.0887943730
1388.24928	0.0881102011
1386.81957	0.0873466656
1385.38986	0.0865366980
1383.96015	0.0857228488
1382.53044	0.0849369913
1381.10073	0.0841930583
1379.67102	0.0834954157
1378.24131	0.0828490779
1376.81160	0.0822646022
1375.38189	0.0817569643
1373.95218	0.0813410059
1372.52246	0.0810214207
1371.09275	0.0807834640
1369.66304	0.0805922002
1368.23333	0.0804055035
1366.80362	0.0801932588
1365.37391	0.0799550116
1363.94420	0.0797222778
1362.51449	0.0795436651
1361.08478	0.0794556290
1359.65507	0.0794618502
1358.22536	0.0795371383
1356.79565	0.0796448737
1355.36593	0.0797519833
1353.93622	0.0798366219
1352.50651	0.0798918158
1351.07680	0.0799257606
1349.64709	0.0799518079
1348.21738	0.0799765810
1346.78767	0.0799947232
1345.35796	0.0799960941
1343.92825	0.0799797550
1342.49854	0.0799629837
1341.06883	0.0799794421
1339.63911	0.0800603628
1338.20940	0.0802135319
1336.77969	0.0804147869
1335.34998	0.0806262344
1333.92027	0.0808221251
1332.49056	0.0810030103
1331.06085	0.0811889693
1329.63114	0.0814035386
1328.20143	0.0816588551
1326.77172	0.0819512457
1325.34201	0.0822666362
1323.91229	0.0825894251
1322.48258	0.0829094499
1321.05287	0.0832257569
1319.62316	0.0835457146
1318.19345	0.0838785619
1316.76374	0.0842254609
1315.33403	0.0845738649
1313.90432	0.0849024951
1312.47461	0.0851949379
1311.04490	0.0854493454
1309.61519	0.0856777281
1308.18547	0.0858955979
1306.75576	0.0861137062
1305.32605	0.0863361582
1303.89634	0.0865627676
1302.46663	0.0867910758
1301.03692	0.0870160237
1299.60721	0.0872306749
1298.17750	0.0874288157
1296.74779	0.0876066089
1295.31808	0.0877624974
1293.88837	0.0878966972
1292.45865	0.0880108029
1291.02894	0.0881094038
1289.59923	0.0882001370
1288.16952	0.0882923082
1286.73981	0.0883937627
1285.31010	0.0885089561
1283.88039	0.0886375755
1282.45068	0.0887756348
1281.02097	0.0889169127
1279.59126	0.0890570581
1278.16155	0.0891983062
1276.73183	0.0893511325
1275.30212	0.0895324945
1273.87241	0.0897611231
1272.44270	0.0900536999
1271.01299	0.0904204249
1269.58328	0.0908625722
1268.15357	0.0913730115
1266.72386	0.0919411555
1265.29415	0.0925605893
1263.86444	0.0932347178
1262.43473	0.0939735845
1261.00501	0.0947848335
1259.57530	0.0956622511
1258.14559	0.0965839028
1256.71588	0.0975154191
1255.28617	0.0984180495
1253.85646	0.0992515162
1252.42675	0.0999755412
1250.99704	0.1005529687
1249.56733	0.1009556428
1248.13762	0.1011719406
1246.70791	0.1012110263
1245.27819	0.1010996029
1243.84848	0.1008711606
1242.41877	0.1005539149
1240.98906	0.1001638323
1239.55935	0.0997057706
1238.12964	0.0991823897
1236.69993	0.0986029133
1235.27022	0.0979835913
1233.84051	0.0973444581
1232.41080	0.0967025161
1230.98109	0.0960683003
1229.55137	0.0954464525
1228.12166	0.0948356465
1226.69195	0.0942303240
1225.26224	0.0936203524
1223.83253	0.0929946303
1222.40282	0.0923451781
1220.97311	0.0916704163
1219.54340	0.0909753218
1218.11369	0.0902693495
1216.68398	0.0895636380
1215.25427	0.0888689756
1213.82455	0.0881962925
1212.39484	0.0875579044
1210.96513	0.0869673193
1209.53542	0.0864392444
1208.10571	0.0859855488
1206.67600	0.0856120810
1205.24629	0.0853193924
1203.81658	0.0851060599
1202.38687	0.0849751458
1200.95716	0.0849362686
1199.52745	0.0850021243
1198.09774	0.0851817727
1196.66802	0.0854763538
1195.23831	0.0858797282
1193.80860	0.0863810331
1192.37889	0.0869664624
1190.94918	0.0876180157
1189.51947	0.0883144140
1188.08976	0.0890376419
1186.66005	0.0897812694
1185.23034	0.0905555412
1183.80063	0.0913841352
1182.37092	0.0922913253
1180.94120	0.0932905152
1179.51149	0.0943778902
1178.08178	0.0955355987
1176.65207	0.0967401639
1175.22236	0.0979700685
1173.79265	0.0992096812
1172.36294	0.1004499346
1170.93323	0.1016880497
1169.50352	0.1029251441
1168.07381	0.1041638628
1166.64410	0.1054077074
1165.21438	0.1066613495
1163.78467	0.1079323590
1162.35496	0.1092292368
1160.92525	0.1105576456
1159.49554	0.1119147167
1158.06583	0.1132888719
1156.63612	0.1146644950
1155.20641	0.1160278171
1153.77670	0.1173694804
1152.34699	0.1186852604
1150.91728	0.1199797913
1149.48756	0.1212702543
1148.05785	0.1225865632
1146.62814	0.1239628941
1145.19843	0.1254249811
1143.76872	0.1269833148
1142.33901	0.1286393851
1140.90930	0.1303947717
1139.47959	0.1322550923
1138.04988	0.1342237294
1136.62017	0.1362937242
1135.19046	0.1384475380
1133.76074	0.1406661868
1132.33103	0.1429377943
1130.90132	0.1452588439
1129.47161	0.1476268619
1128.04190	0.1500333548
1126.61219	0.1524638981
1125.18248	0.1549036652
1123.75277	0.1573418230
1122.32306	0.1597688943
1120.89335	0.1621692032
1119.46364	0.1645172834
1118.03392	0.1667840630
1116.60421	0.1689518690
1115.17450	0.1710278392
1113.74479	0.1730428636
1112.31508	0.1750332862
1110.88537	0.1770143360
1109.45566	0.1789623350
1108.02595	0.1808187962
1106.59624	0.1825147420
1105.16653	0.1840015948
1103.73682	0.1852698028
1102.30710	0.1863471866
1100.87739	0.1872790605
1099.44768	0.1881077290
1098.01797	0.1888582855
1096.58826	0.1895396858
1095.15855	0.1901521981
1093.72884	0.1906923652
1092.29913	0.1911512017
1090.86942	0.1915043741
1089.43971	0.1917086393
1088.01000	0.1917076707
1086.58028	0.1914515048
1085.15057	0.1909172684
1083.72086	0.1901171505
1082.29115	0.1890889108
1080.86144	0.1878745854
1079.43173	0.1865023524
1078.00202	0.1849841177
1076.57231	0.1833237708
1075.14260	0.1815300286
1073.71289	0.1796197593
1072.28318	0.1776144952
1070.85346	0.1755325794
1069.42375	0.1733842045
1067.99404	0.1711722016
1066.56433	0.1688938141
1065.13462	0.1665406227
1063.70491	0.1640992165
1062.27520	0.1615521014
1060.84549	0.1588812917
1059.41578	0.1560736597
1057.98607	0.1531256139
1056.55636	0.1500479132
1055.12664	0.1468680352
1053.69693	0.1436279416
1052.26722	0.1403754801
1050.83751	0.1371531934
1049.40780	0.1339915395
1047.97809	0.1309114099
1046.54838	0.1279305667
1045.11867	0.1250651479
1043.68896	0.1223257110
1042.25925	0.1197138876
1040.82954	0.1172261685
1039.39983	0.1148622707
1037.97011	0.1126292795
1036.54040	0.1105353087
1035.11069	0.1085785404
1033.68098	0.1067421064
1032.25127	0.1049993038
1030.82156	0.1033263206
1029.39185	0.1017134041
1027.96214	0.1001683325
1026.53243	0.0987111926
1025.10272	0.0973637030
1023.67301	0.0961416140
1022.24329	0.0950541645
1020.81358	0.0941102281
1019.38387	0.0933244675
1017.95416	0.0927172378
1016.52445	0.0923083276
1015.09474	0.0921114385
1013.66503	0.0921336487
1012.23532	0.0923792496
1010.80561	0.0928508639
1009.37590	0.0935467854
1007.94619	0.0944555551
1006.51647	0.0955537632
1005.08676	0.0968093574
1003.65705	0.0981876403
1002.22734	0.0996558219
1000.79763	0.1011834145
999.36792	0.1027375162
997.93821	0.1042758450
996.50850	0.1057414338
995.07879	0.1070646644
993.64908	0.1081723496
992.21937	0.1090029404
990.78965	0.1095186770
989.35994	0.1097126603
987.93023	0.1096040308
986.50052	0.1092256755
985.07081	0.1086084545
983.64110	0.1077722237
982.21139	0.1067281365
980.78168	0.1054888889
979.35197	0.1040774733
977.92226	0.1025250927
976.49255	0.1008626372
975.06283	0.0991145074
973.63312	0.0973015428
972.20341	0.0954490006
970.77370	0.0935883671
969.34399	0.0917507336
967.91428	0.0899594948
966.48457	0.0882313401
965.05486	0.0865846947
963.62515	0.0850443169
962.19544	0.0836371258
960.76573	0.0823817775
959.33601	0.0812836289
957.90630	0.0803375691
956.47659	0.0795346498
955.04688	0.0788647160
953.61717	0.0783151165
952.18746	0.0778696388
950.75775	0.0775119066
949.32804	0.0772299692
947.89833	0.0770166814
946.46862	0.0768655911
945.03891	0.0767641366
943.60919	0.0766934007
942.17948	0.0766316056
940.74977	0.0765613541
939.32006	0.0764725655
937.89035	0.0763603076
936.46064	0.0762222484
935.03093	0.0760562941
933.60122	0.0758623853
932.17151	0.0756447092
930.74180	0.0754123330
929.31209	0.0751764476
927.88237	0.0749473348
926.45266	0.0747318715
925.02295	0.0745322183
923.59324	0.0743443891
922.16353	0.0741567984
920.73382	0.0739514232
919.30411	0.0737087205
917.87440	0.0734153911
916.44469	0.0730708316
915.01498	0.0726891756
913.58527	0.0722941607
912.15555	0.0719101280
910.72584	0.0715541840
909.29613	0.0712338760
907.86642	0.0709515736
906.43671	0.0707144439
905.00700	0.0705407709
903.57729	0.0704583824
902.14758	0.0704935119
900.71787	0.0706568956
899.28816	0.0709371269
897.85845	0.0713068992
896.42873	0.0717379376
894.99902	0.0722138807
893.56931	0.0727318376
892.13960	0.0732933506
890.70989	0.0738947690
889.28018	0.0745261014
887.85047	0.0751760453
886.42076	0.0758356899
884.99105	0.0764985234
883.56134	0.0771539360
882.13163	0.0777881369
880.70192	0.0783876330
879.27220	0.0789445564
877.84249	0.0794559419
876.41278	0.0799200982
874.98307	0.0803346410
873.55336	0.0806990713
872.12365	0.0810158625
870.69394	0.0812857822
869.26423	0.0815011486
867.83452	0.0816449896
866.40481	0.0816983134
864.97510	0.0816511437
863.54538	0.0815071464
862.11567	0.0812796652
860.68596	0.0809841380
859.25625	0.0806324333
857.82654	0.0802306533
856.39683	0.0797775164
854.96712	0.0792663470
853.53741	0.0786889642
852.10770	0.0780453682
850.67799	0.0773496628
849.24828	0.0766295344
847.81856	0.0759165213
846.38885	0.0752360672
844.95914	0.0745999888
843.52943	0.0740067363
842.09972	0.0734457150
840.67001	0.0729052499
839.24030	0.0723797753
837.81059	0.0718730167
836.38088	0.0713910088
834.95117	0.0709314272
833.52146	0.0704762191
832.09174	0.0699969530
830.66203	0.0694696307
829.23232	0.0688902289
827.80261	0.0682780594
826.37290	0.0676696599
824.94319	0.0671071783
823.51348	0.0666275322
822.08377	0.0662519187
820.65406	0.0659785569
819.22435	0.0657827333
817.79464	0.0656299070
816.36492	0.0654932633
814.93521	0.0653668046
813.50550	0.0652609318
812.07579	0.0651868731
810.64608	0.0651438609
809.21637	0.0651176348
807.78666	0.0650884360
806.35695	0.0650402606
804.92724	0.0649654642
803.49753	0.0648660511
802.06782	0.0647522211
800.63810	0.0646395534
799.20839	0.0645432547
797.77868	0.0644745752
796.34897	0.0644415990
794.91926	0.0644528940
793.48955	0.0645174533
792.05984	0.0646351054
790.63013	0.0647880957
789.20042	0.0649452880
787.77071	0.0650783330
786.34100	0.0651798919
784.91128	0.0652636960
783.48157	0.0653484166
782.05186	0.0654373765
780.62215	0.0655123740
779.19244	0.0655475035
777.76273	0.0655288100
776.33302	0.0654665977
774.90331	0.0653931051
773.47360	0.0653490499
772.04389	0.0653671026
770.61418	0.0654578656
769.18446	0.0656028688
767.75475	0.0657604188
766.32504	0.0658875927
764.89533	0.0659661144
763.46562	0.0660169497
762.03591	0.0660869554
760.60620	0.0662149265
759.17649	0.0664008036
757.74678	0.0666028187
756.31707	0.0667661950
754.88736	0.0668619573
753.45764	0.0669045672
752.02793	0.0669379979
750.59822	0.0670007244
749.16851	0.0670982376
747.73880	0.0671993643
746.30909	0.0672585368
744.87938	0.0672456920
743.44967	0.0671665147
742.01996	0.0670616552
740.59025	0.0669876188
739.16054	0.0669922978
737.73082	0.0670994446
736.30111	0.0673056841
734.87140	0.0675884113
733.44169	0.0679147840
732.01198	0.0682509169
730.58227	0.0685719699
729.15256	0.0688723922
727.72285	0.0691676736
726.29314	0.0694836676
724.86343	0.0698353946
723.43372	0.0702145770
722.00401	0.0705952868
720.57429	0.0709534958
719.14458	0.0712854862
717.71487	0.0716072395
716.28516	0.0719374418
714.85545	0.0722800642
713.42574	0.0726235732
711.99603	0.0729561746
710.56632	0.0732808188
709.13661	0.0736159757
707.70690	0.0739770830
706.27719	0.0743539110
704.84747	0.0747046918
703.41776	0.0749745592
701.98805	0.0751268640
700.55834	0.0751604438
699.12863	0.0751016289
697.69892	0.0749810189
696.26921	0.0748189241
694.83950	0.0746292472
693.40979	0.0744339749
691.98008	0.0742700249
690.55037	0.0741792470
689.12065	0.0741884559
687.69094	0.0742918327
686.26123	0.0744483247
684.83152	0.0745959282
683.40181	0.0746813565
681.97210	0.0746875629
680.54239	0.0746455714
679.11268	0.0746144354
677.68297	0.0746419728
676.25326	0.0747317448
674.82355	0.0748445392
673.39383	0.0749317706
671.96412	0.0749712065
670.53441	0.0749858171
669.10470	0.0750375688
667.67499	0.0751773715
666.24528	0.0753858835
664.81557	0.0755882636
663.38586	0.0757231936
661.95615	0.0757744759
660.52644	0.0757625774
659.09673	0.0757269859
657.66701	0.0757066160
656.23730	0.0757228211
654.80759	0.0757774636
653.37788	0.0758626908
651.94817	0.0759681612
650.51846	0.0760771781
649.08875	0.0761627108
647.65904	0.0761955604
646.22933	0.0761633888
644.79962	0.0760825425
643.36991	0.0759930164
641.94019	0.0759373605
640.51048	0.0759393051
639.08077	0.0759945288
637.65106	0.0760730132
636.22135	0.0761267394
634.79164	0.0760968253
633.36193	0.0759212077
631.93222	0.0755530521
630.50251	0.0749849603
629.07280	0.0742681846
627.64309	0.0735115036
626.21337	0.0728472695
624.78366	0.0723699927
623.35395	0.0720782056
621.92424	0.0718742087
620.49453	0.0716378540
619.06482	0.0713122413
617.63511	0.0709284693
616.20540	0.0705598071
614.77569	0.0702645481
613.34598	0.0700603351
611.91627	0.0699261874
610.48655	0.0698257610
609.05684	0.0697338656
607.62713	0.0696583092
606.19742	0.0696375519
604.76771	0.0697127730
603.33800	0.0699011013
601.90829	0.0701870397
600.47858	0.0705363303
599.04887	0.0709131658
