3997.47168	0.0201686565
3996.04197	0.0201744586
3994.61226	0.0201910269
3993.18255	0.0202074610
3991.75284	0.0202209931
3990.32312	0.0202392731
3988.89341	0.0202719010
3987.46370	0.0203212406
3986.03399	0.0203782618
3984.60428	0.0204276945
3983.17457	0.0204584654
3981.74486	0.0204670131
3980.31515	0.0204565655
3978.88544	0.0204301365
3977.45573	0.0203888156
3976.02602	0.0203367826
3974.59630	0.0202851370
3973.16659	0.0202495251
3971.73688	0.0202410351
3970.30717	0.0202586371
3968.87746	0.0202897210
3967.44775	0.0203207508
3966.01804	0.0203443523
3964.58833	0.0203604121
3963.15862	0.0203709640
3961.72891	0.0203767698
3960.29920	0.0203778818
3958.86948	0.0203754958
3957.43977	0.0203715879
3956.01006	0.0203657281
3954.58035	0.0203533042
3953.15064	0.0203278307
3951.72093	0.0202866010
3950.29122	0.0202350151
3948.86151	0.0201842207
3947.43180	0.0201457702
3946.00209	0.0201265458
3944.57238	0.0201294739
3943.14266	0.0201572664
3941.71295	0.0202123150
3940.28324	0.0202902090
3938.85353	0.0203740578
3937.42382	0.0204383042
3935.99411	0.0204604734
3934.56440	0.0204371382
3933.13469	0.0203892495
3931.70498	0.0203507002
3930.27527	0.0203439724
3928.84556	0.0203655120
3927.41585	0.0203943234
3925.98613	0.0204101950
3924.55642	0.0204069130
3923.12671	0.0203883275
3921.69700	0.0203610901
3920.26729	0.0203303006
3918.83758	0.0203027669
3917.40787	0.0202889889
3915.97816	0.0202990249
3914.54845	0.0203315206
3913.11874	0.0203702599
3911.68903	0.0203896835
3910.25931	0.0203642100
3908.82960	0.0202776231
3907.39989	0.0201293658
3905.97018	0.0199397728
3904.54047	0.0197543520
3903.11076	0.0196344927
3901.68105	0.0196264479
3900.25134	0.0197270177
3898.82163	0.0198851917
3897.39192	0.0200404134
3895.96221	0.0201554224
3894.53249	0.0202241130
3893.10278	0.0202650111
3891.67307	0.0203071889
3890.24336	0.0203694459
3888.81365	0.0204462819
3887.38394	0.0205120314
3885.95423	0.0205381941
3884.52452	0.0205117613
3883.09481	0.0204412341
3881.66510	0.0203522723
3880.23539	0.0202692151
3878.80567	0.0202033389
3877.37596	0.0201488342
3875.94625	0.0200921129
3874.51654	0.0200260747
3873.08683	0.0199599639
3871.65712	0.0199197158
3870.22741	0.0199293103
3868.79770	0.0199878532
3867.36799	0.0200673603
3865.93828	0.0201377720
3864.50857	0.0201886687
3863.07885	0.0202291571
3861.64914	0.0202675872
3860.21943	0.0202918630
3858.78972	0.0202675872
3857.36001	0.0201524682
3855.93030	0.0199312884
3854.50059	0.0196718685
3853.07088	0.0195360836
3851.64117	0.0196394473
3850.21146	0.0199245680
3848.78175	0.0202488471
3847.35203	0.0205043796
3845.92232	0.0206433721
3844.49261	0.0206627548
3843.06290	0.0205933172
3841.63319	0.0204860345
3840.20348	0.0203906614
3838.77377	0.0203353465
3837.34406	0.0203206707
3835.91435	0.0203332845
3834.48464	0.0203645360
3833.05493	0.0204149708
3831.62521	0.0204863325
3830.19550	0.0205708705
3828.76579	0.0206481218
3827.33608	0.0206912328
3825.90637	0.0206798315
3824.47666	0.0206102282
3823.04695	0.0204992499
3821.61724	0.0203801077
3820.18753	0.0202901810
3818.75782	0.0202582851
3817.32811	0.0202995390
3815.89839	0.0204122309
3814.46868	0.0205739643
3813.03897	0.0207449384
3811.60926	0.0208789837
3810.17955	0.0209390130
3808.74984	0.0209100023
3807.32013	0.0208085068
3805.89042	0.0206778217
3804.46071	0.0205683745
3803.03100	0.0205151793
3801.60129	0.0205303226
3800.17157	0.0206088163
3798.74186	0.0207341313
3797.31215	0.0208823513
3795.88244	0.0210291538
3794.45273	0.0211576074
3793.02302	0.0212607868
3791.59331	0.0213387329
3790.16360	0.0213951003
3788.73389	0.0214347243
3787.30418	0.0214649923
3785.87447	0.0214927904
3784.44475	0.0215207245
3783.01504	0.0215465389
3781.58533	0.0215704516
3780.15562	0.0216018446
3778.72591	0.0216537844
3777.29620	0.0217282362
3775.86649	0.0218081437
3774.43678	0.0218684655
3773.00707	0.0218916871
3771.57736	0.0218763594
3770.14765	0.0218378417
3768.71794	0.0218004417
3767.28822	0.0217845999
3765.85851	0.0217949972
3764.42880	0.0218169633
3762.99909	0.0218257830
3761.56938	0.0218011215
3760.13967	0.0217404552
3758.70996	0.0216594450
3757.28025	0.0215717293
3755.85054	0.0214709491
3754.42083	0.0213373471
3752.99112	0.0211656783
3751.56140	0.0209874772
3750.13169	0.0208562501
3748.70198	0.0208049212
3747.27227	0.0208382700
3745.84256	0.0209662858
3744.41285	0.0212125108
3742.98314	0.0215679482
3741.55343	0.0219645463
3740.12372	0.0223055575
3738.69401	0.0225104447
3737.26430	0.0225419905
3735.83458	0.0224319622
3734.40487	0.0222835671
3732.97516	0.0222098641
3731.54545	0.0222449843
3730.11574	0.0223447997
3728.68603	0.0224482901
3727.25632	0.0225199871
3725.82661	0.0225607753
3724.39690	0.0225999858
3722.96719	0.0226730723
3721.53748	0.0227979477
3720.10776	0.0229655132
3718.67805	0.0231472589
3717.24834	0.0233056191
3715.81863	0.0234029461
3714.38892	0.0234164409
3712.95921	0.0233668853
3711.52950	0.0233350359
3710.09979	0.0234142840
3708.67008	0.0236258451
3707.24037	0.0239057448
3705.81066	0.0241750702
3704.38094	0.0243936572
3702.95123	0.0245654825
3701.52152	0.0247177295
3700.09181	0.0248763338
3698.66210	0.0250498317
3697.23239	0.0252293795
3695.80268	0.0254007131
3694.37297	0.0255539101
3692.94326	0.0256945305
3691.51355	0.0258466229
3690.08384	0.0260450244
3688.65412	0.0263061915
3687.22441	0.0266110264
3685.79470	0.0269248318
3684.36499	0.0272209495
3682.93528	0.0274835136
3681.50557	0.0277010407
3680.07586	0.0278701242
3678.64615	0.0280096158
3677.21644	0.0281674936
3675.78673	0.0284003709
3674.35702	0.0287330616
3672.92730	0.0291496292
3671.49759	0.0296285339
3670.06788	0.0301676486
3668.63817	0.0307721999
3667.20846	0.0314359479
3665.77875	0.0321410708
3664.34904	0.0328647904
3662.91933	0.0335795954
3661.48962	0.0342507586
3660.05991	0.0348486528
3658.63020	0.0353678390
3657.20048	0.0358352661
3655.77077	0.0362909287
3654.34106	0.0367604494
3652.91135	0.0372543111
3651.48164	0.0377977304
3650.05193	0.0384495147
3648.62222	0.0392643549
3647.19251	0.0402199663
3645.76280	0.0412294865
3644.33309	0.0422218740
3642.90338	0.0431740731
3641.47366	0.0440902561
3640.04395	0.0449809544
3638.61424	0.0458539538
3637.18453	0.0467073470
3635.75482	0.0475249626
3634.32511	0.0482866615
3632.89540	0.0489990450
3631.46569	0.0497257188
3630.03598	0.0505726859
3628.60627	0.0515991263
3627.17656	0.0527334400
3625.74684	0.0538336262
3624.31713	0.0548120402
3622.88742	0.0556682609
3621.45771	0.0564544126
3620.02800	0.0572371483
3618.59829	0.0580683388
3617.16858	0.0589604229
3615.73887	0.0598843209
3614.30916	0.0608009249
3612.87945	0.0616950355
3611.44974	0.0625864416
3610.02003	0.0635112077
3608.59031	0.0644865260
3607.16060	0.0654963329
3605.73089	0.0665059015
3604.30118	0.0674881041
3602.87147	0.0684280992
3601.44176	0.0693197846
3600.01205	0.0701659918
3598.58234	0.0709859282
3597.15263	0.0718078390
3595.72292	0.0726482049
3594.29321	0.0734995753
3592.86349	0.0743479505
3591.43378	0.0752020553
3590.00407	0.0760964230
3588.57436	0.0770605430
3587.14465	0.0780788884
3585.71494	0.0790911168
3584.28523	0.0800379217
3582.85552	0.0808990896
3581.42581	0.0816883147
3579.99610	0.0824342296
3578.56639	0.0831693187
3577.13667	0.0839217380
3575.70696	0.0847018883
3574.27725	0.0854951367
3572.84754	0.0862755626
3571.41783	0.0870299414
3569.98812	0.0877725407
3568.55841	0.0885398984
3567.12870	0.0893663689
3565.69899	0.0902584866
3564.26928	0.0911920071
3562.83957	0.0921320468
3561.40985	0.0930514857
3559.98014	0.0939373598
3558.55043	0.0947937816
3557.12072	0.0956373736
3555.69101	0.0964860395
3554.26130	0.0973442346
3552.83159	0.0982019827
3551.40188	0.0990480706
3549.97217	0.0998833254
3548.54246	0.1007206887
3547.11275	0.1015735269
3545.68303	0.1024458110
3544.25332	0.1033290103
3542.82361	0.1042056158
3541.39390	0.1050565690
3539.96419	0.1058700457
3538.53448	0.1066477522
3537.10477	0.1074017882
3535.67506	0.1081413031
3534.24535	0.1088658124
3532.81564	0.1095705777
3531.38593	0.1102614105
3529.95621	0.1109576821
3528.52650	0.1116770357
3527.09679	0.1124201119
3525.66708	0.1131726280
3524.23737	0.1139223129
3522.80766	0.1146697551
3521.37795	0.1154234782
3519.94824	0.1161873788
3518.51853	0.1169586182
3517.08882	0.1177314371
3515.65911	0.1185003668
3514.22939	0.1192600578
3512.79968	0.1200075001
3511.36997	0.1207445413
3509.94026	0.1214770526
3508.51055	0.1222073659
3507.08084	0.1229322776
3505.65113	0.1236490160
3504.22142	0.1243623123
3502.79171	0.1250801384
3501.36200	0.1258008331
3499.93229	0.1265113801
3498.50257	0.1271979958
3497.07286	0.1278566569
3495.64315	0.1284908056
3494.21344	0.1291020811
3492.78373	0.1296902746
3491.35402	0.1302621514
3489.92431	0.1308351010
3488.49460	0.1314249784
3487.06489	0.1320348531
3485.63518	0.1326544136
3484.20547	0.1332742870
3482.77575	0.1338934302
3481.34604	0.1345129013
3479.91633	0.1351268888
3478.48662	0.1357236505
3477.05691	0.1362982243
3475.62720	0.1368543655
3474.19749	0.1373998374
3472.76778	0.1379388273
3471.33807	0.1384719610
3469.90836	0.1390007287
3468.47865	0.1395259649
3467.04893	0.1400449425
3465.61922	0.1405516863
3464.18951	0.1410429776
3462.75980	0.1415189207
3461.33009	0.1419813335
3459.90038	0.1424292624
3458.47067	0.1428641230
3457.04096	0.1432936937
3455.61125	0.1437286288
3454.18154	0.1441744268
3452.75183	0.1446268260
3451.32212	0.1450783610
3449.89240	0.1455240995
3448.46269	0.1459609121
3447.03298	0.1463827938
3445.60327	0.1467858851
3444.17356	0.1471766382
3442.74385	0.1475708634
3441.31414	0.1479788125
3439.88443	0.1483929604
3438.45472	0.1487929672
3437.02501	0.1491651684
3435.59530	0.1495142579
3434.16558	0.1498554200
3432.73587	0.1501974314
3431.30616	0.1505359858
3429.87645	0.1508616358
3428.44674	0.1511709690
3427.01703	0.1514696926
3425.58732	0.1517653316
3424.15761	0.1520602107
3422.72790	0.1523495466
3421.29819	0.1526249200
3419.86848	0.1528802216
3418.43876	0.1531168520
3417.00905	0.1533423662
3415.57934	0.1535642147
3414.14963	0.1537839472
3412.71992	0.1539985985
3411.29021	0.1542066038
3409.86050	0.1544111818
3408.43079	0.1546169072
3407.00108	0.1548236459
3405.57137	0.1550262421
3404.14166	0.1552225947
3402.71194	0.1554181874
3401.28223	0.1556231976
3399.85252	0.1558443904
3398.42281	0.1560809761
3396.99310	0.1563238800
3395.56339	0.1565556824
3394.13368	0.1567528695
3392.70397	0.1568945050
3391.27426	0.1569747180
3389.84455	0.1570123583
3388.41484	0.1570435762
3386.98512	0.1571042687
3385.55541	0.1572138071
3384.12570	0.1573712528
3382.69599	0.1575596929
3381.26628	0.1577543318
3379.83657	0.1579311490
3378.40686	0.1580787152
3376.97715	0.1582045555
3375.54744	0.1583322734
3374.11773	0.1584832966
3372.68802	0.1586589217
3371.25830	0.1588367969
3369.82859	0.1589863151
3368.39888	0.1590888351
3366.96917	0.1591483653
3365.53946	0.1591847688
3364.10975	0.1592193246
3362.68004	0.1592623442
3361.25033	0.1593112499
3359.82062	0.1593624949
3358.39091	0.1594231427
3356.96120	0.1595126539
3355.53148	0.1596467644
3354.10177	0.1598183662
3352.67206	0.1599930972
3351.24235	0.1601291746
3349.81264	0.1602069885
3348.38293	0.1602431834
3346.95322	0.1602788717
3345.52351	0.1603508741
3344.09380	0.1604706496
3342.66409	0.1606209874
3341.23438	0.1607696116
3339.80466	0.1608855724
3338.37495	0.1609538496
3336.94524	0.1609807760
3335.51553	0.1609926969
3334.08582	0.1610250622
3332.65611	0.1611084491
3331.22640	0.1612539440
3329.79669	0.1614481062
3328.36698	0.1616578996
3326.93727	0.1618456542
3325.50756	0.1619890034
3324.07784	0.1620919704
3322.64813	0.1621829569
3321.21842	0.1622970700
3319.78871	0.1624580175
3318.35900	0.1626698077
3316.92929	0.1629241556
3315.49958	0.1632100791
3314.06987	0.1635182947
3312.64016	0.1638386697
3311.21045	0.1641552299
3309.78074	0.1644471884
3308.35102	0.1646938026
3306.92131	0.1648797840
3305.49160	0.1650032699
3304.06189	0.1650803834
3302.63218	0.1651428044
3301.20247	0.1652257293
3299.77276	0.1653491259
3298.34305	0.1655064821
3296.91334	0.1656697243
3295.48363	0.1658027619
3294.05392	0.1658772826
3292.62421	0.1658784598
3291.19449	0.1658070087
3289.76478	0.1656768471
3288.33507	0.1655109525
3286.90536	0.1653300077
3285.47565	0.1651425511
3284.04594	0.1649422944
3282.61623	0.1647180468
3281.18652	0.1644660234
3279.75681	0.1641935408
3278.32710	0.1639132351
3276.89739	0.1636297107
3275.46767	0.1633326411
3274.03796	0.1629965901
3272.60825	0.1625888348
3271.17854	0.1620822698
3269.74883	0.1614683419
3268.31912	0.1607656032
3266.88941	0.1600154042
3265.45970	0.1592660844
3264.02999	0.1585527360
3262.60028	0.1578876078
3261.17057	0.1572634876
3259.74085	0.1566630751
3258.31114	0.1560691446
3256.88143	0.1554679126
3255.45172	0.1548538953
3254.02201	0.1542321891
3252.59230	0.1536171138
3251.16259	0.1530224234
3249.73288	0.1524505764
3248.30317	0.1518909037
3246.87346	0.1513287276
3245.44375	0.1507594734
3244.01403	0.1501938105
3242.58432	0.1496520936
3241.15461	0.1491537392
3239.72490	0.1487076879
3238.29519	0.1483086348
3236.86548	0.1479376853
3235.43577	0.1475668699
3234.00606	0.1471690089
3232.57635	0.1467302144
3231.14664	0.1462581903
3229.71693	0.1457789838
3228.28721	0.1453239471
3226.85750	0.1449127048
3225.42779	0.1445462704
3223.99808	0.1442094594
3222.56837	0.1438804269
3221.13866	0.1435391307
3219.70895	0.1431719512
3218.27924	0.1427740604
3216.84953	0.1423492730
3215.41982	0.1419096589
3213.99011	0.1414706558
3212.56039	0.1410442442
3211.13068	0.1406348795
3209.70097	0.1402392834
3208.27126	0.1398508996
3206.84155	0.1394630820
3205.41184	0.1390691102
3203.98213	0.1386604011
3202.55242	0.1382296532
3201.12271	0.1377784312
3199.69300	0.1373210251
3198.26329	0.1368787736
3196.83357	0.1364650875
3195.40386	0.1360746473
3193.97415	0.1356858015
3192.54444	0.1352769434
3191.11473	0.1348403096
3189.68502	0.1343853921
3188.25531	0.1339277178
3186.82560	0.1334773153
3185.39589	0.1330322325
3183.96618	0.1325828880
3182.53647	0.1321194470
3181.10675	0.1316391230
3179.67704	0.1311456114
3178.24733	0.1306461692
3176.81762	0.1301453263
3175.38791	0.1296436638
3173.95820	0.1291400939
3172.52849	0.1286352426
3171.09878	0.1281322837
3169.66907	0.1276339144
3168.23936	0.1271405071
3166.80965	0.1266516149
3165.37993	0.1261676103
3163.95022	0.1256909072
3162.52051	0.1252225339
3161.09080	0.1247617453
3159.66109	0.1243080273
3158.23138	0.1238634512
3156.80167	0.1234305501
3155.37196	0.1230044663
3153.94225	0.1225703210
3152.51254	0.1221089736
3151.08283	0.1216097549
3149.65311	0.1210802794
3148.22340	0.1205445156
3146.79369	0.1200324148
3145.36398	0.1195656359
3143.93427	0.1191474497
3142.50456	0.1187603176
3141.07485	0.1183726862
3139.64514	0.1179545224
3138.21543	0.1174941510
3136.78572	0.1170042679
3135.35601	0.1165134460
3133.92629	0.1160466522
3132.49658	0.1156099439
3131.06687	0.1151908189
3129.63716	0.1147725433
3128.20745	0.1143493056
3126.77774	0.1139306575
3125.34803	0.1135335267
3123.91832	0.1131691039
3122.48861	0.1128343567
3121.05890	0.1125143543
3119.62919	0.1121904701
3118.19948	0.1118501797
3116.76976	0.1114919782
3115.34005	0.1111218780
3113.91034	0.1107479110
3112.48063	0.1103722677
3111.05092	0.1099907830
3109.62121	0.1095973998
3108.19150	0.1091922596
3106.76179	0.1087859645
3105.33208	0.1083958969
3103.90237	0.1080361903
3102.47266	0.1077082604
3101.04294	0.1073989719
3099.61323	0.1070903093
3098.18352	0.1067730188
3096.75381	0.1064533144
3095.32410	0.1061481982
3093.89439	0.1058731526
3092.46468	0.1056313887
3091.03497	0.1054116040
3089.60526	0.1051940396
3088.17555	0.1049590856
3086.74584	0.1046930626
3085.31612	0.1043910459
3083.88641	0.1040560901
3082.45670	0.1036960483
3081.02699	0.1033190936
3079.59728	0.1029290482
3078.16757	0.1025260463
3076.73786	0.1021110043
3075.30815	0.1016930863
3073.87844	0.1012905389
3072.44873	0.1009227261
3071.01902	0.1005952582
3069.58930	0.1002918407
3068.15959	0.0999791250
3066.72988	0.0996251106
3065.30017	0.0992185250
3063.87046	0.0987738073
3062.44075	0.0983196795
3061.01104	0.0978808776
3059.58133	0.0974658728
3058.15162	0.0970698148
3056.72191	0.0966827199
3055.29220	0.0962964222
3053.86248	0.0959053412
3052.43277	0.0955054462
3051.00306	0.0950965732
3049.57335	0.0946858302
3048.14364	0.0942849293
3046.71393	0.0939006358
3045.28422	0.0935252458
3043.85451	0.0931377038
3042.42480	0.0927176923
3040.99509	0.0922624469
3039.56538	0.0917911232
3038.13566	0.0913304910
3036.70595	0.0908948928
3035.27624	0.0904748738
3033.84653	0.0900467262
3032.41682	0.0895903930
3030.98711	0.0891046003
3029.55740	0.0886054486
3028.12769	0.0881155878
3026.69798	0.0876540914
3025.26827	0.0872323811
3023.83856	0.0868556648
3022.40884	0.0865227059
3020.97913	0.0862241611
3019.54942	0.0859447867
3018.11971	0.0856669098
3016.69000	0.0853755400
3015.26029	0.0850611255
3013.83058	0.0847196355
3012.40087	0.0843527243
3010.97116	0.0839681551
3009.54145	0.0835777521
3008.11174	0.0831940249
3006.68202	0.0828269944
3005.25231	0.0824856535
3003.82260	0.0821800455
3002.39289	0.0819200128
3000.96318	0.0817102194
2999.53347	0.0815458745
2998.10376	0.0814139321
2996.67405	0.0813018903
2995.24434	0.0812038854
2993.81463	0.0811210647
2992.38492	0.0810564160
2990.95520	0.0810116529
2989.52549	0.0809881985
2988.09578	0.0809917226
2986.66607	0.0810310841
2985.23636	0.0811124220
2983.80665	0.0812327191
2982.37694	0.0813779980
2980.94723	0.0815297887
2979.51752	0.0816736966
2978.08781	0.0818048418
2976.65810	0.0819265470
2975.22838	0.0820435435
2973.79867	0.0821571499
2972.36896	0.0822647884
2970.93925	0.0823637247
2969.50954	0.0824553519
2968.07983	0.0825427771
2966.65012	0.0826247707
2965.22041	0.0826895609
2963.79070	0.0827156156
2962.36099	0.0826802254
2960.93128	0.0825710148
2959.50157	0.0823902264
2958.07185	0.0821496770
2956.64214	0.0818611234
2955.21243	0.0815306306
2953.78272	0.0811632872
2952.35301	0.0807722062
2950.92330	0.0803829804
2949.49359	0.0800278708
2948.06388	0.0797316432
2946.63417	0.0795016363
2945.20446	0.0793278366
2943.77475	0.0791929364
2942.34503	0.0790827647
2940.91532	0.0789917782
2939.48561	0.0789205581
2938.05590	0.0788710490
2936.62619	0.0788414925
2935.19648	0.0788238645
2933.76677	0.0788021684
2932.33706	0.0787548125
2930.90735	0.0786611959
2929.47764	0.0785099119
2928.04793	0.0783033967
2926.61821	0.0780552179
2925.18850	0.0777823180
2923.75879	0.0774959028
2922.32908	0.0771951228
2920.89937	0.0768658742
2919.46966	0.0764846653
2918.03995	0.0760274902
2916.61024	0.0754817203
2915.18053	0.0748549327
2913.75082	0.0741751269
2912.32111	0.0734806582
2910.89139	0.0728060901
2909.46168	0.0721716359
2908.03197	0.0715824515
2906.60226	0.0710364059
2905.17255	0.0705334619
2903.74284	0.0700808689
2902.31313	0.0696874261
2900.88342	0.0693552792
2899.45371	0.0690711588
2898.02400	0.0688087866
2896.59429	0.0685408711
2895.16457	0.0682528540
2893.73486	0.0679500774
2892.30515	0.0676525384
2890.87544	0.0673831552
2889.44573	0.0671577826
2888.01602	0.0669816062
2886.58631	0.0668511540
2885.15660	0.0667579249
2883.72689	0.0666921511
2882.29718	0.0666473657
2880.86747	0.0666212589
2879.43775	0.0666135922
2878.00804	0.0666175783
2876.57833	0.0666122064
2875.14862	0.0665643439
2873.71891	0.0664409250
2872.28920	0.0662251115
2870.85949	0.0659240186
2869.42978	0.0655644834
2868.00007	0.0651780888
2866.57036	0.0647905916
2865.14065	0.0644185096
2863.71093	0.0640730336
2862.28122	0.0637625083
2860.85151	0.0634908900
2859.42180	0.0632538125
2857.99209	0.0630385950
2856.56238	0.0628283024
2855.13267	0.0626059994
2853.70296	0.0623546727
2852.27325	0.0620543361
2850.84354	0.0616839342
2849.41383	0.0612311028
2847.98411	0.0607067570
2846.55440	0.0601490252
2845.12469	0.0596113726
2843.69498	0.0591390096
2842.26527	0.0587488897
2840.83556	0.0584272556
2839.40585	0.0581435896
2837.97614	0.0578722954
2836.54643	0.0576029457
2835.11672	0.0573383979
2833.68701	0.0570849627
2832.25729	0.0568439513
2830.82758	0.0566128343
2829.39787	0.0563907102
2827.96816	0.0561807230
2826.53845	0.0559878275
2825.10874	0.0558131188
2823.67903	0.0556522831
2822.24932	0.0554984175
2820.81961	0.0553473383
2819.38990	0.0551996082
2817.96019	0.0550584495
2816.53047	0.0549247414
2815.10076	0.0547947437
2813.67105	0.0546607599
2812.24134	0.0545144081
2810.81163	0.0543508232
2809.38192	0.0541706719
2807.95221	0.0539815091
2806.52250	0.0537966192
2805.09279	0.0536301434
2803.66308	0.0534921587
2802.23337	0.0533831082
2800.80366	0.0532904156
2799.37394	0.0531947576
2797.94423	0.0530798696
2796.51452	0.0529418550
2795.08481	0.0527907610
2793.65510	0.0526409745
2792.22539	0.0524990670
2790.79568	0.0523579940
2789.36597	0.0522047952
2787.93626	0.0520322733
2786.50655	0.0518474542
2785.07684	0.0516674332
2783.64712	0.0515090860
2782.21741	0.0513813309
2780.78770	0.0512826554
2779.35799	0.0512024350
2777.92828	0.0511238053
2776.49857	0.0510275476
2775.06886	0.0509000793
2773.63915	0.0507399738
2772.20944	0.0505600944
2770.77973	0.0503786281
2769.35002	0.0502077602
2767.92030	0.0500482880
2766.49059	0.0498932004
2765.06088	0.0497366302
2763.63117	0.0495787524
2762.20146	0.0494240373
2760.77175	0.0492761321
2759.34204	0.0491347983
2757.91233	0.0489973351
2756.48262	0.0488621183
2755.05291	0.0487307385
2753.62320	0.0486060530
2752.19348	0.0484888740
2750.76377	0.0483752862
2749.33406	0.0482576191
2747.90435	0.0481304675
2746.47464	0.0479936115
2745.04493	0.0478530414
2743.61522	0.0477155223
2742.18551	0.0475836806
2740.75580	0.0474548191
2739.32609	0.0473243557
2737.89638	0.0471903495
2736.46666	0.0470548011
2735.03695	0.0469219759
2733.60724	0.0467958190
2732.17753	0.0466774851
2730.74782	0.0465661250
2729.31811	0.0464588888
2727.88840	0.0463513881
2726.45869	0.0462380685
2725.02898	0.0461134352
2723.59927	0.0459732153
2722.16956	0.0458171591
2720.73984	0.0456499159
2719.31013	0.0454813875
2717.88042	0.0453236103
2716.45071	0.0451853089
2715.02100	0.0450669527
2713.59129	0.0449610315
2712.16158	0.0448553637
2710.73187	0.0447395369
2709.30216	0.0446085632
2707.87245	0.0444642976
2706.44274	0.0443142019
2705.01302	0.0441669077
2703.58331	0.0440304354
2702.15360	0.0439080372
2700.72389	0.0437979624
2699.29418	0.0436949804
2697.86447	0.0435940027
2696.43476	0.0434920713
2695.00505	0.0433891341
2693.57534	0.0432871096
2692.14563	0.0431889407
2690.71592	0.0430987999
2689.28620	0.0430209637
2687.85649	0.0429575443
2686.42678	0.0429057106
2684.99707	0.0428563654
2683.56736	0.0427972861
2682.13765	0.0427176766
2680.70794	0.0426142961
2679.27823	0.0424926132
2677.84852	0.0423650257
2676.41881	0.0422452390
2674.98910	0.0421419702
2673.55938	0.0420549810
2672.12967	0.0419761091
2670.69996	0.0418945700
2669.27025	0.0418024436
2667.84054	0.0416991673
2666.41083	0.0415890776
2664.98112	0.0414774790
2663.55141	0.0413663350
2662.12170	0.0412547626
2660.69199	0.0411421694
2659.26228	0.0410304293
2657.83256	0.0409255996
2656.40285	0.0408329368
2654.97314	0.0407544859
2653.54343	0.0406870469
2652.11372	0.0406260453
2650.68401	0.0405678377
2649.25430	0.0405118242
2647.82459	0.0404570661
2646.39488	0.0404016934
2644.96517	0.0403426327
2643.53546	0.0402782708
2642.10575	0.0402093753
2640.67603	0.0401374213
2639.24632	0.0400622450
2637.81661	0.0399816893
2636.38690	0.0398948193
2634.95719	0.0398050472
2633.52748	0.0397203676
2632.09777	0.0396484956
2630.66806	0.0395924300
2629.23835	0.0395491309
2627.80864	0.0395109430
2626.37893	0.0394702293
2624.94921	0.0394216701
2623.51950	0.0393637083
2622.08979	0.0392987244
2620.66008	0.0392327905
2619.23037	0.0391736068
2617.80066	0.0391269773
2616.37095	0.0390930735
2614.94124	0.0390665047
2613.51153	0.0390380695
2612.08182	0.0390006602
2610.65211	0.0389531441
2609.22239	0.0389014743
2607.79268	0.0388551578
2606.36297	0.0388233103
2604.93326	0.0388090722
2603.50355	0.0388097242
2602.07384	0.0388175100
2600.64413	0.0388243012
2599.21442	0.0388238207
2597.78471	0.0388134606
2596.35500	0.0387928262
2594.92529	0.0387643538
2593.49557	0.0387316644
2592.06586	0.0387000814
2590.63615	0.0386748686
2589.20644	0.0386598706
2587.77673	0.0386557952
2586.34702	0.0386598445
2584.91731	0.0386675671
2583.48760	0.0386755764
2582.05789	0.0386833288
2580.62818	0.0386920720
2579.19847	0.0387025438
2577.76875	0.0387125313
2576.33904	0.0387184769
2574.90933	0.0387183614
2573.47962	0.0387146547
2572.04991	0.0387123898
2570.62020	0.0387156457
2569.19049	0.0387239940
2567.76078	0.0387332216
2566.33107	0.0387396179
2564.90136	0.0387438908
2563.47165	0.0387522392
2562.04193	0.0387729295
2560.61222	0.0388108008
2559.18251	0.0388642438
2557.75280	0.0389255397
2556.32309	0.0389850549
2554.89338	0.0390358046
2553.46367	0.0390761048
2552.03396	0.0391072072
2550.60425	0.0391315110
2549.17454	0.0391528383
2547.74483	0.0391770899
2546.31511	0.0392115675
2544.88540	0.0392606705
2543.45569	0.0393209159
2542.02598	0.0393818468
2540.59627	0.0394328684
2539.16656	0.0394707695
2537.73685	0.0395017564
2536.30714	0.0395362303
2534.87743	0.0395817421
2533.44772	0.0396398194
2532.01801	0.0397068933
2530.58829	0.0397760794
2529.15858	0.0398393199
2527.72887	0.0398904793
2526.29916	0.0399305746
2524.86945	0.0399695970
2523.43974	0.0400222763
2522.01003	0.0400978439
2520.58032	0.0401919670
2519.15061	0.0402880684
2517.72090	0.0403678007
2516.29119	0.0404221490
2514.86147	0.0404557325
2513.43176	0.0404823571
2512.00205	0.0405169092
2510.57234	0.0405683778
2509.14263	0.0406365916
2507.71292	0.0407140553
2506.28321	0.0407909937
2504.85350	0.0408620313
2503.42379	0.0409299210
2501.99408	0.0410019793
2500.56437	0.0410832651
2499.13465	0.0411705412
2497.70494	0.0412555337
2496.27523	0.0413302332
2494.84552	0.0413943231
2493.41581	0.0414542370
2491.98610	0.0415187478
2490.55639	0.0415928364
2489.12668	0.0416769423
2487.69697	0.0417668745
2486.26726	0.0418567993
2484.83755	0.0419400148
2483.40784	0.0420107245
2481.97812	0.0420659035
2480.54841	0.0421068594
2479.11870	0.0421391763
2477.68899	0.0421718955
2476.25928	0.0422143713
2474.82957	0.0422738008
2473.39986	0.0423517004
2471.97015	0.0424425714
2470.54044	0.0425354056
2469.11073	0.0426198058
2467.68102	0.0426897742
2466.25130	0.0427468121
2464.82159	0.0427957997
2463.39188	0.0428405106
2461.96217	0.0428817943
2460.53246	0.0429187678
2459.10275	0.0429522023
2457.67304	0.0429858938
2456.24333	0.0430257097
2454.81362	0.0430779867
2453.38391	0.0431454256
2451.95420	0.0432261415
2450.52448	0.0433113053
2449.09477	0.0433887355
2447.66506	0.0434474386
2446.23535	0.0434852056
2444.80564	0.0435095541
2443.37593	0.0435336195
2441.94622	0.0435672700
2440.51651	0.0436109155
2439.08680	0.0436564237
2437.65709	0.0436942950
2436.22738	0.0437212624
2434.79766	0.0437417887
2433.36795	0.0437637158
2431.93824	0.0437922925
2430.50853	0.0438258797
2429.07882	0.0438588969
2427.64911	0.0438856445
2426.21940	0.0439050607
2424.78969	0.0439214148
2423.35998	0.0439418629
2421.93027	0.0439728573
2420.50056	0.0440164544
2419.07084	0.0440689959
2417.64113	0.0441215150
2416.21142	0.0441637821
2414.78171	0.0441890582
2413.35200	0.0441969410
2411.92229	0.0441940762
2410.49258	0.0441908650
2409.06287	0.0441961661
2407.63316	0.0442139916
2406.20345	0.0442431122
2404.77374	0.0442792587
2403.34402	0.0443174094
2401.91431	0.0443531871
2400.48460	0.0443838947
2399.05489	0.0444086120
2397.62518	0.0444293693
2396.19547	0.0444495268
2394.76576	0.0444715247
2393.33605	0.0444932915
2391.90634	0.0445076562
2390.47663	0.0445072576
2389.04692	0.0444902219
2387.61720	0.0444615148
2386.18749	0.0444296263
2384.75778	0.0443993211
2383.32807	0.0443678088
2381.89836	0.0443252362
2380.46865	0.0442597643
2379.03894	0.0441624075
2377.60923	0.0440291464
2376.17952	0.0438609868
2374.74981	0.0436625779
2373.32010	0.0434414297
2371.89038	0.0432067253
2370.46067	0.0429679751
2369.03096	0.0427314155
2367.60125	0.0424970090
2366.17154	0.0422581062
2364.74183	0.0420083031
2363.31212	0.0417543910
2361.88241	0.0415260382
2360.45270	0.0413701795
2359.02299	0.0413315706
2357.59328	0.0414346159
2356.16356	0.0416744351
2354.73385	0.0420145169
2353.30414	0.0423960201
2351.87443	0.0427569225
2350.44472	0.0430485457
2349.01501	0.0432413258
2347.58530	0.0433216020
2346.15559	0.0432928577
2344.72588	0.0431814790
2343.29617	0.0430360846
2341.86646	0.0429070517
2340.43674	0.0428177975
2339.00703	0.0427595787
2337.57732	0.0427155048
2336.14761	0.0426801778
2334.71790	0.0426599868
2333.28819	0.0426610410
2331.85848	0.0426828042
2330.42877	0.0427175611
2328.99906	0.0427564383
2327.56935	0.0427933708
2326.13964	0.0428283960
2324.70993	0.0428675078
2323.28021	0.0429208241
2321.85050	0.0429976135
2320.42079	0.0430993699
2318.99108	0.0432151034
2317.56137	0.0433264934
2316.13166	0.0434178561
2314.70195	0.0434849747
2313.27224	0.0435355939
2311.84253	0.0435822085
2310.41282	0.0436323248
2308.98311	0.0436857939
2307.55339	0.0437383503
2306.12368	0.0437875688
2304.69397	0.0438338406
2303.26426	0.0438768789
2301.83455	0.0439144261
2300.40484	0.0439420938
2298.97513	0.0439584181
2297.54542	0.0439651795
2296.11571	0.0439654961
2294.68600	0.0439615697
2293.25629	0.0439545512
2291.82657	0.0439469330
2290.39686	0.0439432114
2288.96715	0.0439471044
2287.53744	0.0439580195
2286.10773	0.0439708792
2284.67802	0.0439791307
2283.24831	0.0439788140
2281.81860	0.0439710803
2280.38889	0.0439605974
2278.95918	0.0439520627
2277.52947	0.0439475626
2276.09975	0.0439451598
2274.67004	0.0439395458
2273.24033	0.0439249091
2271.81062	0.0438994169
2270.38091	0.0438669436
2268.95120	0.0438362174
2267.52149	0.0438148826
2266.09178	0.0438050330
2264.66207	0.0438019708
2263.23236	0.0437998511
2261.80265	0.0437966436
2260.37293	0.0437960997
2258.94322	0.0438031442
2257.51351	0.0438185781
2256.08380	0.0438382216
2254.65409	0.0438560620
2253.22438	0.0438690893
2251.79467	0.0438778810
2250.36496	0.0438840091
2248.93525	0.0438868739
2247.50554	0.0438842960
2246.07583	0.0438745879
2244.64611	0.0438589826
2243.21640	0.0438411422
2241.78669	0.0438249037
2240.35698	0.0438130237
2238.92727	0.0438061208
2237.49756	0.0438033454
2236.06785	0.0438017696
2234.63814	0.0437981896
2233.20843	0.0437913761
2231.77872	0.0437826440
2230.34901	0.0437746532
2228.91929	0.0437689871
2227.48958	0.0437632874
2226.05987	0.0437531546
2224.63016	0.0437350012
2223.20045	0.0437099822
2221.77074	0.0436833017
2220.34103	0.0436621197
2218.91132	0.0436513014
2217.48161	0.0436516441
2216.05190	0.0436598584
2214.62219	0.0436703339
2213.19247	0.0436765738
2211.76276	0.0436741412
2210.33305	0.0436626934
2208.90334	0.0436464064
2207.47363	0.0436334684
2206.04392	0.0436307192
2204.61421	0.0436399356
2203.18450	0.0436573103
2201.75479	0.0436747707
2200.32508	0.0436852202
2198.89537	0.0436853617
2197.46565	0.0436764881
2196.03594	0.0436617471
2194.60623	0.0436432585
2193.17652	0.0436203033
2191.74681	0.0435906239
2190.31710	0.0435537361
2188.88739	0.0435137041
2187.45768	0.0434774794
2186.02797	0.0434503853
2184.59826	0.0434319600
2183.16855	0.0434169993
2181.73883	0.0434009507
2180.30912	0.0433841012
2178.87941	0.0433713160
2177.44970	0.0433663093
2176.01999	0.0433666520
2174.59028	0.0433643907
2173.16057	0.0433518067
2171.73086	0.0433270670
2170.30115	0.0432951748
2168.87144	0.0432640314
2167.44173	0.0432387814
2166.01202	0.0432208218
2164.58230	0.0432086140
2163.15259	0.0432013236
2161.72288	0.0431988351
2160.29317	0.0431994908
2158.86346	0.0431985185
2157.43375	0.0431891419
2156.00404	0.0431662947
2154.57433	0.0431311019
2153.14462	0.0430904776
2151.71491	0.0430536605
2150.28520	0.0430271663
2148.85548	0.0430127308
2147.42577	0.0430079289
2145.99606	0.0430077873
2144.56635	0.0430058427
2143.13664	0.0429961570
2141.70693	0.0429759212
2140.27722	0.0429469161
2138.84751	0.0429146811
2137.41780	0.0428864509
2135.98809	0.0428669937
2134.55838	0.0428586230
2133.12866	0.0428612493
2131.69895	0.0428723358
2130.26924	0.0428868793
2128.83953	0.0428976230
2127.40982	0.0428983942
2125.98011	0.0428874791
2124.55040	0.0428679660
2123.12069	0.0428447090
2121.69098	0.0428209677
2120.26127	0.0427973978
2118.83156	0.0427743196
2117.40184	0.0427531227
2115.97213	0.0427356698
2114.54242	0.0427231304
2113.11271	0.0427145623
2111.68300	0.0427078530
2110.25329	0.0427005403
2108.82358	0.0426917449
2107.39387	0.0426830612
2105.96416	0.0426790901
2104.53445	0.0426855460
2103.10474	0.0427066535
2101.67502	0.0427410975
2100.24531	0.0427808613
2098.81560	0.0428139381
2097.38589	0.0428297669
2095.95618	0.0428239107
2094.52647	0.0427997410
2093.09676	0.0427650623
2091.66705	0.0427285023
2090.23734	0.0426964276
2088.80763	0.0426730961
2087.37792	0.0426611863
2085.94820	0.0426614992
2084.51849	0.0426719822
2083.08878	0.0426872596
2081.65907	0.0427003391
2080.22936	0.0427057669
2078.79965	0.0427021384
2077.36994	0.0426919162
2075.94023	0.0426787771
2074.51052	0.0426654406
2073.08081	0.0426525883
2071.65110	0.0426401086
2070.22138	0.0426279753
2068.79167	0.0426159799
2067.36196	0.0426028743
2065.93225	0.0425879993
2064.50254	0.0425728075
2063.07283	0.0425630733
2061.64312	0.0425663255
2060.21341	0.0425859429
2058.78370	0.0426159799
2057.35399	0.0426433943
2055.92428	0.0426553600
2054.49456	0.0426484756
2053.06485	0.0426306874
2051.63514	0.0426144116
2050.20543	0.0426071845
2048.77572	0.0426073857
2047.34601	0.0426075011
2045.91630	0.0426017605
2044.48659	0.0425913110
2043.05688	0.0425825454
2041.62717	0.0425830856
2040.19746	0.0425967909
2038.76774	0.0426218361
2037.33803	0.0426508188
2035.90832	0.0426734947
2034.47861	0.0426808894
2033.04890	0.0426697247
2031.61919	0.0426458791
2030.18948	0.0426223762
2028.75977	0.0426119827
2027.33006	0.0426197499
2025.90035	0.0426389128
2024.47064	0.0426552445
2023.04092	0.0426562466
2021.61121	0.0426389948
2020.18150	0.0426110402
2018.75179	0.0425864570
2017.32208	0.0425781198
2015.89237	0.0425933078
2014.46266	0.0426304303
2013.03295	0.0426812619
2011.60324	0.0427335575
2010.17353	0.0427773185
2008.74382	0.0428081676
2007.31411	0.0428297110
2005.88439	0.0428493656
2004.45468	0.0428731665
2003.02497	0.0429023951
2001.59526	0.0429339409
2000.16555	0.0429634601
1998.73584	0.0429860093
1997.30613	0.0429976135
1995.87642	0.0429960117
1994.44671	0.0429837517
1993.01700	0.0429683775
1991.58729	0.0429614037
1990.15757	0.0429718904
1988.72786	0.0430018157
1987.29815	0.0430447720
1985.86844	0.0430902801
1984.43873	0.0431295000
1983.00902	0.0431597494
1981.57931	0.0431861393
1980.14960	0.0432181060
1978.71989	0.0432626307
1977.29018	0.0433196276
1975.86047	0.0433814973
1974.43075	0.0434378833
1973.00104	0.0434802845
1971.57133	0.0435054898
1970.14162	0.0435165651
1968.71191	0.0435231179
1967.28220	0.0435390845
1965.85249	0.0435759984
1964.42278	0.0436357595
1962.99307	0.0437090658
1961.56336	0.0437824130
1960.13365	0.0438466109
1958.70393	0.0439008512
1957.27422	0.0439495109
1955.84451	0.0439961441
1954.41480	0.0440408327
1952.98509	0.0440821759
1951.55538	0.0441206284
1950.12567	0.0441592857
1948.69596	0.0442015827
1947.26625	0.0442478433
1945.83654	0.0442943908
1944.40683	0.0443360433
1942.97711	0.0443724841
1941.54740	0.0444112755
1940.11769	0.0444645844
1938.68798	0.0445399508
1937.25827	0.0446340106
1935.82856	0.0447351746
1934.39885	0.0448320024
1932.96914	0.0449195206
1931.53943	0.0449985564
1930.10972	0.0450695679
1928.68001	0.0451293290
1927.25029	0.0451733619
1925.82058	0.0452017114
1924.39087	0.0452215895
1922.96116	0.0452445149
1921.53145	0.0452806279
1920.10174	0.0453344434
1918.67203	0.0454043597
1917.24232	0.0454833992
1915.81261	0.0455633998
1914.38290	0.0456380695
1912.95319	0.0457067415
1911.52347	0.0457746722
1910.09376	0.0458506159
1908.66405	0.0459426828
1907.23434	0.0460528769
1905.80463	0.0461745523
1904.37492	0.0462932102
1902.94521	0.0463930070
1901.51550	0.0464645065
1900.08579	0.0465098247
1898.65608	0.0465406254
1897.22637	0.0465724953
1895.79665	0.0466169305
1894.36694	0.0466782339
1892.93723	0.0467547961
1891.50752	0.0468426459
1890.07781	0.0469381809
1888.64810	0.0470398590
1887.21839	0.0471472964
1885.78868	0.0472592674
1884.35897	0.0473717563
1882.92926	0.0474804044
1881.49955	0.0475827567
1880.06983	0.0476806238
1878.64012	0.0477766618
1877.21041	0.0478695743
1875.78070	0.0479527637
1874.35099	0.0480178408
1872.92128	0.0480609238
1871.49157	0.0480877273
1870.06186	0.0481154323
1868.63215	0.0481681228
1867.20244	0.0482625924
1865.77273	0.0483950190
1864.34301	0.0485432036
1862.91330	0.0486828685
1861.48359	0.0488027968
1860.05388	0.0489084423
1858.62417	0.0490138233
1857.19446	0.0491281599
1855.76475	0.0492500924
1854.33504	0.0493716560
1852.90533	0.0494867824
1851.47562	0.0495920144
1850.04591	0.0496830232
1848.61619	0.0497546569
1847.18648	0.0498086549
1845.75677	0.0498594902
1844.32706	0.0499299653
1842.89735	0.0500322841
1841.46764	0.0501578115
1840.03793	0.0502859950
1838.60822	0.0504013039
1837.17851	0.0504995473
1835.74880	0.0505859777
1834.31909	0.0506694838
1832.88938	0.0507578962
1831.45966	0.0508542992
1830.02995	0.0509569831
1828.60024	0.0510633588
1827.17053	0.0511773899
1825.74082	0.0513096601
1824.31111	0.0514682829
1822.88140	0.0516516306
1821.45169	0.0518492013
1820.02198	0.0520483516
1818.59227	0.0522384271
1817.16256	0.0524099804
1815.73284	0.0525548346
1814.30313	0.0526703708
1812.87342	0.0527656227
1811.44371	0.0528598689
1810.01400	0.0529716238
1808.58429	0.0531068109
1807.15458	0.0532582216
1805.72487	0.0534134917
1804.29516	0.0535623468
1802.86545	0.0536999442
1801.43574	0.0538273267
1800.00602	0.0539514087
1798.57631	0.0540794842
1797.14660	0.0542117879
1795.71689	0.0543424040
1794.28718	0.0544698015
1792.85747	0.0546072163
1791.42776	0.0547757410
1789.99805	0.0549824387
1788.56834	0.0552095734
1787.13863	0.0554294437
1785.70892	0.0556242689
1784.27920	0.0557935461
1782.84949	0.0559497252
1781.41978	0.0561094917
1779.99007	0.0562853217
1778.56036	0.0564791746
1777.13065	0.0566801950
1775.70094	0.0568702705
1774.27123	0.0570374951
1772.84152	0.0571934991
1771.41181	0.0573734306
1769.98210	0.0576048940
1768.55238	0.0578801334
1767.12267	0.0581681244
1765.69296	0.0584448464
1764.26325	0.0587054752
1762.83354	0.0589596517
1761.40383	0.0592220724
1759.97412	0.0595072433
1758.54441	0.0598238558
1757.11470	0.0601685010
1755.68499	0.0605245158
1754.25528	0.0608725138
1752.82556	0.0612062477
1751.39585	0.0615418181
1749.96614	0.0619080961
1748.53643	0.0623228475
1747.10672	0.0627807677
1745.67701	0.0632646829
1744.24730	0.0637590662
1742.81759	0.0642487854
1741.38788	0.0647158921
1739.95817	0.0651496351
1738.52846	0.0655592456
1737.09874	0.0659747571
1735.66903	0.0664329007
1734.23932	0.0669569001
1732.80961	0.0675440729
1731.37990	0.0681738630
1729.95019	0.0688266754
1728.52048	0.0694945380
1727.09077	0.0701778531
1725.66106	0.0708789751
1724.23135	0.0715971962
1722.80164	0.0723299012
1721.37192	0.0730829015
1719.94221	0.0738865510
1718.51250	0.0747968107
1717.08279	0.0758506358
1715.65308	0.0770019665
1714.22337	0.0781461000
1712.79366	0.0792218298
1711.36395	0.0802443251
1709.93424	0.0812632143
1708.50453	0.0823209211
1707.07482	0.0834407061
1705.64510	0.0846422762
1704.21539	0.0859711617
1702.78568	0.0875137895
1701.35597	0.0893754289
1699.92626	0.0916042179
1698.49655	0.0940956324
1697.06684	0.0966036916
1695.63713	0.0989061892
1694.20742	0.1009293869
1692.77771	0.1027120724
1691.34800	0.1043268889
1689.91828	0.1058533266
1688.48857	0.1073963195
1687.05886	0.1091046557
1685.62915	0.1111209095
1684.19944	0.1134243086
1682.76973	0.1157513410
1681.34002	0.1178270429
1679.91031	0.1196098179
1678.48060	0.1212367490
1677.05089	0.1228634045
1675.62118	0.1245788634
1674.19147	0.1264015138
1672.76175	0.1283217818
1671.33204	0.1303318292
1669.90233	0.1324029714
1668.47262	0.1344633251
1667.04291	0.1364424080
1665.61320	0.1383309513
1664.18349	0.1401652098
1662.75378	0.1419455111
1661.32407	0.1435860842
1659.89436	0.1449601203
1658.46465	0.1459760964
1657.03493	0.1465805024
1655.60522	0.1467033178
1654.17551	0.1462579370
1652.74580	0.1452716440
1651.31609	0.1439693123
1649.88638	0.1425760686
1648.45667	0.1411371976
1647.02696	0.1396258175
1645.59725	0.1381050497
1644.16754	0.1367124766
1642.73783	0.1355175376
1641.30811	0.1344506592
1639.87840	0.1333466023
1638.44869	0.1320271790
1637.01898	0.1304061562
1635.58927	0.1285921037
1634.15956	0.1268222779
1632.72985	0.1252250224
1631.30014	0.1237239018
1629.87043	0.1221403852
1628.44072	0.1202969775
1627.01101	0.1180735156
1625.58129	0.1154626161
1624.15158	0.1125951260
1622.72187	0.1096596047
1621.29216	0.1067608744
1619.86245	0.1038655043
1618.43274	0.1008910462
1617.00303	0.0978615806
1615.57332	0.0949676633
1614.14361	0.0924287215
1612.71390	0.0903075635
1611.28419	0.0885010511
1609.85447	0.0868706182
1608.42476	0.0853506178
1606.99505	0.0839619711
1605.56534	0.0827506632
1604.13563	0.0817262456
1602.70592	0.0808595791
1601.27621	0.0801202506
1599.84650	0.0794982463
1598.41679	0.0789925605
1596.98708	0.0785963237
1595.55737	0.0783005804
1594.12765	0.0781039596
1592.69794	0.0780082792
1591.26823	0.0780042857
1589.83852	0.0780700892
1588.40881	0.0781881511
1586.97910	0.0783588961
1585.54939	0.0785920173
1584.11968	0.0788888335
1582.68997	0.0792359635
1581.26026	0.0796205252
1579.83055	0.0800478831
1578.40083	0.0805417746
1576.97112	0.0811224058
1575.54141	0.0817799941
1574.11170	0.0824804902
1572.68199	0.0832021460
1571.25228	0.0839549676
1569.82257	0.0847600326
1568.39286	0.0856133476
1566.96315	0.0864762366
1565.53344	0.0873072296
1564.10373	0.0881022066
1562.67401	0.0889122412
1561.24430	0.0898419768
1559.81459	0.0910026431
1558.38488	0.0923759192
1556.95517	0.0937407017
1555.52546	0.0948860124
1554.09575	0.0957838073
1552.66604	0.0964924693
1551.23633	0.0970461220
1549.80662	0.0974363908
1548.37691	0.0976397917
1546.94719	0.0976374969
1545.51748	0.0974039361
1544.08777	0.0968775228
1542.65806	0.0959796235
1541.22835	0.0947470665
1539.79864	0.0934344903
1538.36893	0.0923065990
1536.93922	0.0913907140
1535.50951	0.0905544609
1534.07980	0.0896820650
1532.65009	0.0887457803
1531.22037	0.0877823308
1529.79066	0.0868297964
1528.36095	0.0858851895
1526.93124	0.0849125683
1525.50153	0.0838794708
1524.07182	0.0827866495
1522.64211	0.0816726014
1521.21240	0.0805932879
1519.78269	0.0795860738
1518.35298	0.0786475167
1516.92327	0.0777436122
1515.49356	0.0768376291
1514.06384	0.0759045258
1512.63413	0.0749142691
1511.20442	0.0737977177
1509.77471	0.0724399909
1508.34500	0.0707773864
1506.91529	0.0689945668
1505.48558	0.0674909726
1504.05587	0.0664771199
1502.62616	0.0658293366
1501.19645	0.0653217584
1499.76674	0.0647987053
1498.33702	0.0642130077
1496.90731	0.0636076927
1495.47760	0.0630502999
1494.04789	0.0625631511
1492.61818	0.0621193498
1491.18847	0.0616921112
1489.75876	0.0612978749
1488.32905	0.0609933212
1486.89934	0.0608261488
1485.46963	0.0607930049
1484.03992	0.0608527996
1482.61020	0.0609649047
1481.18049	0.0611081161
1479.75078	0.0612794198
1478.32107	0.0614856258
1476.89136	0.0617390759
1475.46165	0.0620577410
1474.03194	0.0624566413
1472.60223	0.0629208982
1471.17252	0.0633946359
1469.74281	0.0638141707
1468.31310	0.0641453713
1466.88338	0.0643883646
1465.45367	0.0645652413
1464.02396	0.0647057965
1462.59425	0.0648330823
1461.16454	0.0649571940
1459.73483	0.0650777593
1458.30512	0.0651901811
1456.87541	0.0652855113
1455.44570	0.0653499514
1454.01599	0.0653690919
1452.58628	0.0653319284
1451.15656	0.0652314499
1449.72685	0.0650685579
1448.29714	0.0648598298
1446.86743	0.0646383837
1445.43772	0.0644355044
1444.00801	0.0642577261
1442.57830	0.0640817955
1441.14859	0.0638703927
1439.71888	0.0635953471
1438.28917	0.0632585734
1436.85946	0.0629034564
1435.42974	0.0625956804
1434.00003	0.0623806119
1432.57032	0.0622632392
1431.14061	0.0622257181
1429.71090	0.0622532628
1428.28119	0.0623409264
1426.85148	0.0624868311
1425.42177	0.0626848787
1423.99206	0.0629245788
1422.56235	0.0631971955
1421.13264	0.0634994283
1419.70292	0.0638320372
1418.27321	0.0641914904
1416.84350	0.0645662323
1415.41379	0.0649435744
1413.98408	0.0653169155
1412.55437	0.0656843483
1411.12466	0.0660419911
1409.69495	0.0663798451
1408.26524	0.0666843951
1406.83553	0.0669461191
1405.40582	0.0671614408
1403.97610	0.0673269629
1402.54639	0.0674341917
1401.11668	0.0674699917
1399.68697	0.0674254522
1398.25726	0.0673033223
1396.82755	0.0671211332
1395.39784	0.0669054464
1393.96813	0.0666781440
1392.53842	0.0664438158
1391.10871	0.0661903843
1389.67900	0.0658991635
1388.24928	0.0655590966
1386.81957	0.0651789904
1385.38986	0.0647862628
1383.96015	0.0644109771
1382.53044	0.0640671551
1381.10073	0.0637492612
1379.67102	0.0634431913
1378.24131	0.0631409660
1376.81160	0.0628513694
1375.38189	0.0626017824
1373.95218	0.0624269620
1372.52246	0.0623468123
1371.09275	0.0623496510
1369.66304	0.0623948351
1368.23333	0.0624316558
1366.80362	0.0624211952
1365.37391	0.0623513237
1363.94420	0.0622408651
1362.51449	0.0621312670
1361.08478	0.0620654747
1359.65507	0.0620660707
1358.22536	0.0621289946
1356.79565	0.0622327067
1355.36593	0.0623521917
1353.93622	0.0624688976
1352.50651	0.0625757426
1351.07680	0.0626762658
1349.64709	0.0627764910
1348.21738	0.0628754199
1346.78767	0.0629623383
1345.35796	0.0630234182
1343.92825	0.0630523637
1342.49854	0.0630573630
1341.06883	0.0630600527
1339.63911	0.0630867854
1338.20940	0.0631550699
1336.77969	0.0632653758
1335.34998	0.0634050295
1333.92027	0.0635603741
1332.49056	0.0637247115
1331.06085	0.0638977438
1329.63114	0.0640813112
1328.20143	0.0642739683
1326.77172	0.0644715056
1325.34201	0.0646689609
1323.91229	0.0648644641
1322.48258	0.0650588498
1321.05287	0.0652541593
1319.62316	0.0654513389
1318.19345	0.0656496286
1316.76374	0.0658471063
1315.33403	0.0660409033
1313.90432	0.0662290379
1312.47461	0.0664108470
1311.04490	0.0665872172
1309.61519	0.0667601302
1308.18547	0.0669304505
1306.75576	0.0670972094
1305.32605	0.0672582313
1303.89634	0.0674116015
1302.46663	0.0675570145
1301.03692	0.0676955804
1299.60721	0.0678275004
1298.17750	0.0679511428
1296.74779	0.0680643320
1295.31808	0.0681662634
1293.88837	0.0682593659
1292.45865	0.0683469176
1291.02894	0.0684307292
1289.59923	0.0685112551
1288.16952	0.0685904026
1286.73981	0.0686734691
1285.31010	0.0687665045
1283.88039	0.0688706040
1282.45068	0.0689789355
1281.02097	0.0690812320
1279.59126	0.0691732615
1278.16155	0.0692617297
1276.73183	0.0693609938
1275.30212	0.0694838464
1273.87241	0.0696352422
1272.44270	0.0698126256
1271.01299	0.0700116083
1269.58328	0.0702312216
1268.15357	0.0704734474
1266.72386	0.0707416758
1265.29415	0.0710388795
1263.86444	0.0713675469
1262.43473	0.0717305765
1261.00501	0.0721298233
1259.57530	0.0725638792
1258.14559	0.0730243400
1256.71588	0.0734951347
1255.28617	0.0739533603
1253.85646	0.0743733868
1252.42675	0.0747313201
1250.99704	0.0750090778
1249.56733	0.0751975328
1248.13762	0.0752959400
1246.70791	0.0753116757
1245.27819	0.0752559528
1243.84848	0.0751401931
1242.41877	0.0749721900
1240.98906	0.0747557580
1239.55935	0.0744935870
1238.12964	0.0741912797
1236.69993	0.0738590211
1235.27022	0.0735093579
1233.84051	0.0731537193
1232.41080	0.0727999434
1230.98109	0.0724525303
1229.55137	0.0721152425
1228.12166	0.0717912838
1226.69195	0.0714827105
1225.26224	0.0711870939
1223.83253	0.0708956718
1222.40282	0.0705963820
1220.97311	0.0702801570
1219.54340	0.0699478984
1218.11369	0.0696111470
1216.68398	0.0692861676
1215.25427	0.0689839721
1213.82455	0.0687065497
1212.39484	0.0684506744
1210.96513	0.0682172030
1209.53542	0.0680153146
1208.10571	0.0678592175
1206.67600	0.0677586347
1205.24629	0.0677130073
1203.81658	0.0677121282
1202.38687	0.0677446574
1200.95716	0.0678065941
1199.52745	0.0679043159
1198.09774	0.0680518299
1196.66802	0.0682624876
1195.23831	0.0685424432
1193.80860	0.0688884109
1192.37889	0.0692896619
1190.94918	0.0697330460
1189.51947	0.0702061802
1188.08976	0.0706990585
1186.66005	0.0712057874
1185.23034	0.0717269182
1183.80063	0.0722708926
1182.37092	0.0728516728
1180.94120	0.0734821633
1179.51149	0.0741672665
1178.08178	0.0749023333
1176.65207	0.0756751224
1175.22236	0.0764707699
1173.79265	0.0772740096
1172.36294	0.0780710801
1170.93323	0.0788517669
1169.50352	0.0796135589
1168.07381	0.0803625137
1166.64410	0.0811098963
1165.21438	0.0818662494
1163.78467	0.0826375186
1162.35496	0.0834251493
1160.92525	0.0842289776
1159.49554	0.0850466117
1158.06583	0.0858731717
1156.63612	0.0867001638
1155.20641	0.0875190794
1153.77670	0.0883265659
1152.34699	0.0891268477
1150.91728	0.0899295956
1149.48756	0.0907441974
1148.05785	0.0915774330
1146.62814	0.0924346820
1145.19843	0.0933243707
1143.76872	0.0942596868
1142.33901	0.0952544287
1140.90930	0.0963178128
1139.47959	0.0974513963
1138.04988	0.0986505970
1136.62017	0.0999083817
1135.19046	0.1012177244
1133.76074	0.1025698408
1132.33103	0.1039528772
1130.90132	0.1053541601
1129.47161	0.1067642793
1128.04190	0.1081813201
1126.61219	0.1096097901
1125.18248	0.1110556200
1123.75277	0.1125207916
1122.32306	0.1140004545
1120.89335	0.1154827103
1119.46364	0.1169522479
1118.03392	0.1183918938
1116.60421	0.1197856441
1115.17450	0.1211203039
1113.74479	0.1223893240
1112.31508	0.1235946417
1110.88537	0.1247452870
1109.45566	0.1258521229
1108.02595	0.1269187927
1106.59624	0.1279366165
1105.16653	0.1288861483
1103.73682	0.1297446787
1102.30710	0.1304959953
1100.87739	0.1311349273
1099.44768	0.1316688508
1098.01797	0.1321173161
1096.58826	0.1325084269
1095.15855	0.1328702569
1093.72884	0.1332179010
1092.29913	0.1335442662
1090.86942	0.1338206828
1089.43971	0.1340108067
1088.01000	0.1340867281
1086.58028	0.1340362579
1085.15057	0.1338587254
1083.72086	0.1335557103
1082.29115	0.1331257671
1080.86144	0.1325672865
1079.43173	0.1318830848
1078.00202	0.1310807019
1076.57231	0.1301686615
1075.14260	0.1291543096
1073.71289	0.1280451268
1072.28318	0.1268542409
1070.85346	0.1256008893
1069.42375	0.1243040934
1067.99404	0.1229721010
1066.56433	0.1215962246
1065.13462	0.1201545373
1063.70491	0.1186219901
1062.27520	0.1169815287
1060.84549	0.1152298003
1059.41578	0.1133745983
1057.98607	0.1114299819
1056.55636	0.1094127297
1055.12664	0.1073431224
1053.69693	0.1052465811
1052.26722	0.1031540111
1050.83751	0.1010969207
1049.40780	0.0991026685
1047.97809	0.0971885994
1046.54838	0.0953593254
1045.11867	0.0936075076
1043.68896	0.0919173881
1042.25925	0.0902741924
1040.82954	0.0886742473
1039.39983	0.0871310383
1037.97011	0.0856680498
1036.54040	0.0843053237
1035.11069	0.0830470771
1033.68098	0.0818815082
1032.25127	0.0807893574
1030.82156	0.0797559917
1029.39185	0.0787755102
1027.96214	0.0778486729
1026.53243	0.0769798383
1025.10272	0.0761767775
1023.67301	0.0754514411
1022.24329	0.0748192593
1020.81358	0.0742948428
1019.38387	0.0738888830
1017.95416	0.0736075118
1016.52445	0.0734544769
1015.09474	0.0734314546
1013.66503	0.0735371336
1012.23532	0.0737677440
1010.80561	0.0741205364
1009.37590	0.0745989084
1007.94619	0.0752121806
1006.51647	0.0759658515
1005.08676	0.0768504217
1003.65705	0.0778345838
1002.22734	0.0788730010
1000.79763	0.0799213797
999.36792	0.0809489563
997.93821	0.0819370225
996.50850	0.0828703195
995.07879	0.0837264210
993.64908	0.0844753981
992.21937	0.0850870088
990.78965	0.0855378136
989.35994	0.0858121663
987.93023	0.0858982503
986.50052	0.0857858956
985.07081	0.0854698569
983.64110	0.0849570185
982.21139	0.0842697099
980.78168	0.0834408924
979.35197	0.0825034007
977.92226	0.0814804733
976.49255	0.0803830102
975.06283	0.0792153031
973.63312	0.0779835284
972.20341	0.0767035633
970.77370	0.0754032135
969.34399	0.0741187260
967.91428	0.0728861466
966.48457	0.0717321634
965.05486	0.0706688091
963.62515	0.0696945935
962.19544	0.0688029900
960.76573	0.0679924935
959.33601	0.0672705919
957.90630	0.0666490197
956.47659	0.0661346465
955.04688	0.0657214746
953.61717	0.0653922334
952.18746	0.0651255175
950.75775	0.0649035946
949.32804	0.0647156537
947.89833	0.0645563751
946.46862	0.0644240081
945.03891	0.0643183887
943.60919	0.0642397776
942.17948	0.0641868412
940.74977	0.0641536489
939.32006	0.0641269162
937.89035	0.0640873387
936.46064	0.0640153140
935.03093	0.0638990030
933.60122	0.0637406260
932.17151	0.0635555834
930.74180	0.0633642972
929.31209	0.0631815046
927.88237	0.0630093887
926.45266	0.0628388003
925.02295	0.0626575202
923.59324	0.0624590032
922.16353	0.0622464493
920.73382	0.0620296411
919.30411	0.0618172660
917.87440	0.0616118275
916.44469	0.0614097342
915.01498	0.0612058304
913.58527	0.0609982386
912.15555	0.0607893132
910.72584	0.0605834387
909.29613	0.0603850372
907.86642	0.0602002554
906.43671	0.0600398369
905.00700	0.0599200353
903.57729	0.0598592721
902.14758	0.0598737709
900.71787	0.0599744767
899.28816	0.0601660907
897.85845	0.0604445376
896.42873	0.0607941076
894.99902	0.0611863099
893.56931	0.0615855455
892.13960	0.0619625784
890.70989	0.0623059943
889.28018	0.0626243874
887.85047	0.0629358292
886.42076	0.0632546842
884.99105	0.0635830909
883.56134	0.0639154613
882.13163	0.0642469525
880.70192	0.0645785481
879.27220	0.0649130344
877.84249	0.0652487427
876.41278	0.0655785725
874.98307	0.0658943430
873.55336	0.0661938488
872.12365	0.0664789602
870.69394	0.0667474195
869.26423	0.0669851080
867.83452	0.0671671852
866.40481	0.0672677532
864.97510	0.0672717392
863.54538	0.0671804473
862.11567	0.0670058280
860.68596	0.0667626336
859.25625	0.0664625540
857.82654	0.0661158934
856.39683	0.0657363534
854.96712	0.0653410479
853.53741	0.0649444759
852.10770	0.0645504892
850.67799	0.0641512498
849.24828	0.0637338832
847.81856	0.0632919371
846.38885	0.0628310516
844.95914	0.0623666234
843.52943	0.0619168431
842.09972	0.0614958853
840.67001	0.0611093044
839.24030	0.0607524253
837.81059	0.0604109466
836.38088	0.0600667670
834.95117	0.0597053356
833.52146	0.0593219772
832.09174	0.0589192994
830.66203	0.0585035197
829.23232	0.0580805913
827.80261	0.0576586947
826.37290	0.0572505258
824.94319	0.0568720400
823.51348	0.0565357842
822.08377	0.0562472790
820.65406	0.0560083538
819.22435	0.0558233634
817.79464	0.0556990094
816.36492	0.0556353033
814.93521	0.0556167066
813.50550	0.0556115024
812.07579	0.0555854924
810.64608	0.0555185638
809.21637	0.0554137975
807.78666	0.0552928559
806.35695	0.0551818237
804.92724	0.0550972410
803.49753	0.0550405532
802.06782	0.0550017394
800.63810	0.0549661927
799.20839	0.0549210384
797.77868	0.0548567697
796.34897	0.0547696948
794.91926	0.0546651371
793.48955	0.0545582846
792.05984	0.0544692129
790.63013	0.0544131696
789.20042	0.0543946847
787.77071	0.0544105880
786.34100	0.0544568300
784.91128	0.0545290820
783.48157	0.0546169318
782.05186	0.0546991937
780.62215	0.0547501072
779.19244	0.0547547750
777.76273	0.0547191277
776.33302	0.0546658710
774.90331	0.0546203963
773.47360	0.0545997880
772.04389	0.0546107665
770.61418	0.0546541847
769.18446	0.0547248833
767.75475	0.0548110716
766.32504	0.0548954830
764.89533	0.0549628995
763.46562	0.0550079122
762.03591	0.0550345592
760.60620	0.0550487526
759.17649	0.0550530441
757.74678	0.0550480783
756.31707	0.0550390556
754.88736	0.0550380275
753.45764	0.0550578311
752.02793	0.0551021174
750.59822	0.0551590472
749.16851	0.0552042834
747.73880	0.0552104264
746.30909	0.0551624261
744.87938	0.0550685860
743.44967	0.0549626648
742.01996	0.0548907816
740.59025	0.0548878461
739.16054	0.0549587309
737.73082	0.0550770499
736.30111	0.0552021936
734.87140	0.0552996770
733.44169	0.0553511605
732.01198	0.0553541891
730.58227	0.0553213470
729.15256	0.0552837439
727.72285	0.0552878305
726.29314	0.0553793907
724.86343	0.0555781089
723.43372	0.0558636338
722.00401	0.0561847612
720.57429	0.0564856045
719.14458	0.0567307808
717.71487	0.0569127351
716.28516	0.0570425428
714.85545	0.0571408831
713.42574	0.0572312698
711.99603	0.0573360026
710.56632	0.0574673563
709.13661	0.0576206483
707.70690	0.0577746779
706.27719	0.0579045936
704.84747	0.0579957031
703.41776	0.0580478944
701.98805	0.0580710918
700.55834	0.0580764189
699.12863	0.0580726005
697.69892	0.0580676012
696.26921	0.0580691695
694.83950	0.0580803230
693.40979	0.0580919534
691.98008	0.0580816530
690.55037	0.0580248460
689.12065	0.0579138808
687.69094	0.0577715710
686.26123	0.0576421395
684.83152	0.0575642549
683.40181	0.0575440414
681.97210	0.0575527586
680.54239	0.0575529374
679.11268	0.0575295575
677.68297	0.0574998893
676.25326	0.0574908778
674.82355	0.0575094335
673.39383	0.0575341098
671.96412	0.0575318038
670.53441	0.0574845523
669.10470	0.0574074350
667.67499	0.0573411137
666.24528	0.0573074110
664.81557	0.0572850220
663.38586	0.0572369397
661.95615	0.0571444854
660.52644	0.0570173040
659.09673	0.0568869449
657.66701	0.0567883365
656.23730	0.0567359440
654.80759	0.0567132309
653.37788	0.0566861816
651.94817	0.0566298813
650.51846	0.0565488748
649.08875	0.0564759336
647.65904	0.0564490184
646.22933	0.0564817116
644.79962	0.0565533265
643.36991	0.0566236265
641.94019	0.0566600226
640.51048	0.0566524118
639.08077	0.0566035137
637.65106	0.0565104857
636.22135	0.0563548431
634.79164	0.0561132319
633.36193	0.0557765029
631.93222	0.0553602502
630.50251	0.0548981279
629.07280	0.0544247292
627.64309	0.0539598204
626.21337	0.0534985401
624.78366	0.0530130379
623.35395	0.0524722524
621.92424	0.0518772043
620.49453	0.0512842275
619.06482	0.0507841706
617.63511	0.0504491888
616.20540	0.0502931736
614.77569	0.0502811410
613.34598	0.0503683090
611.91627	0.0505264178
610.48655	0.0507352315
609.05684	0.0509609394
607.62713	0.0511508882
606.19742	0.0512550697
604.76771	0.0512543693
603.33800	0.0511712432
601.90829	0.0510563403
600.47858	0.0509628914
599.04887	0.0509246737
