3997.47168	0.0930766016
3996.04197	0.0930669159
3994.61226	0.0930814072
3993.18255	0.0931155384
3991.75284	0.0931676328
3990.32312	0.0932384357
3988.89341	0.0933230221
3987.46370	0.0934056342
3986.03399	0.0934626758
3984.60428	0.0934769586
3983.17457	0.0934485793
3981.74486	0.0933928937
3980.31515	0.0933280587
3978.88544	0.0932642370
3977.45573	0.0932043940
3976.02602	0.0931522623
3974.59630	0.0931173339
3973.16659	0.0931074247
3971.73688	0.0931199640
3970.30717	0.0931384712
3968.87746	0.0931437016
3967.44775	0.0931246504
3966.01804	0.0930822119
3964.58833	0.0930247083
3963.15862	0.0929614753
3961.72891	0.0929004550
3960.29920	0.0928499326
3958.86948	0.0928162411
3957.43977	0.0928011462
3956.01006	0.0927992836
3954.58035	0.0928010494
3953.15064	0.0927985832
3951.72093	0.0927908570
3950.29122	0.0927823335
3948.86151	0.0927794799
3947.43180	0.0927858278
3946.00209	0.0928018838
3944.57238	0.0928270146
3943.14266	0.0928586498
3941.71295	0.0928901657
3940.28324	0.0929083750
3938.85353	0.0928977951
3937.42382	0.0928480104
3935.99411	0.0927625224
3934.56440	0.0926600695
3933.13469	0.0925671309
3931.70498	0.0925036073
3930.27527	0.0924722180
3928.84556	0.0924614891
3927.41585	0.0924571306
3925.98613	0.0924502164
3924.55642	0.0924376920
3923.12671	0.0924212933
3921.69700	0.0924089998
3920.26729	0.0924154967
3918.83758	0.0924545377
3917.40787	0.0925266072
3915.97816	0.0926114023
3914.54845	0.0926757082
3913.11874	0.0926896483
3911.68903	0.0926384777
3910.25931	0.0925204530
3908.82960	0.0923421010
3907.39989	0.0921184793
3905.97018	0.0918803141
3904.54047	0.0916814804
3903.11076	0.0915910453
3901.68105	0.0916494802
3900.25134	0.0918249264
3898.82163	0.0920260325
3897.39192	0.0921661630
3895.96221	0.0922097936
3894.53249	0.0921730101
3893.10278	0.0921013877
3891.67307	0.0920377448
3890.24336	0.0919973627
3888.81365	0.0919667482
3887.38394	0.0919235274
3885.95423	0.0918601975
3884.52452	0.0917881802
3883.09481	0.0917268470
3881.66510	0.0916882604
3880.23539	0.0916680843
3878.80567	0.0916455761
3877.37596	0.0915967375
3875.94625	0.0915094838
3874.51654	0.0913974568
3873.08683	0.0912963450
3871.65712	0.0912371650
3870.22741	0.0912196264
3868.79770	0.0912162438
3867.36799	0.0912139788
3865.93828	0.0912406445
3864.50857	0.0913319960
3863.07885	0.0914749727
3861.64914	0.0915930569
3860.21943	0.0915944949
3858.78972	0.0914316401
3857.36001	0.0911322907
3855.93030	0.0908150896
3854.50059	0.0906796381
3853.07088	0.0908808187
3851.64117	0.0913389251
3850.21146	0.0918088406
3848.78175	0.0921154022
3847.35203	0.0922135040
3845.92232	0.0921262577
3844.49261	0.0919050127
3843.06290	0.0916286036
3841.63319	0.0914024711
3840.20348	0.0913310722
3838.77377	0.0914567858
3837.34406	0.0917166173
3835.91435	0.0919842497
3834.48464	0.0921664834
3833.05493	0.0922515020
3831.62521	0.0922746435
3830.19550	0.0922627375
3828.76579	0.0922120661
3827.33608	0.0921090394
3825.90637	0.0919580832
3824.47666	0.0917959809
3823.04695	0.0916800424
3821.61724	0.0916637033
3820.18753	0.0917743295
3818.75782	0.0919983611
3817.32811	0.0922852755
3815.89839	0.0925635397
3814.46868	0.0927697048
3813.03897	0.0928728208
3811.60926	0.0928767622
3810.17955	0.0928056687
3808.74984	0.0926887542
3807.32013	0.0925522298
3805.89042	0.0924210995
3804.46071	0.0923230201
3803.03100	0.0922876149
3801.60129	0.0923399627
3800.17157	0.0924859568
3798.74186	0.0927038416
3797.31215	0.0929545760
3795.88244	0.0931997746
3794.45273	0.0934141353
3793.02302	0.0935830697
3791.59331	0.0936952457
3790.16360	0.0937434286
3788.73389	0.0937324762
3787.30418	0.0936896279
3785.87447	0.0936618149
3784.44475	0.0936933234
3783.01504	0.0938026011
3781.58533	0.0939747393
3780.15562	0.0941704512
3778.72591	0.0943420231
3777.29620	0.0944470912
3775.86649	0.0944627970
3774.43678	0.0943979025
3773.00707	0.0942941308
3771.57736	0.0942147896
3770.14765	0.0942131802
3768.71794	0.0942973793
3767.28822	0.0944247022
3765.85851	0.0945400521
3764.42880	0.0946176201
3762.99909	0.0946675763
3761.56938	0.0947130620
3760.13967	0.0947611332
3758.70996	0.0947874114
3757.28025	0.0947457775
3755.85054	0.0946051925
3754.42083	0.0943878293
3752.99112	0.0941808000
3751.56140	0.0940986201
3750.13169	0.0942026675
3748.70198	0.0944608301
3747.27227	0.0948149040
3745.84256	0.0952489153
3744.41285	0.0957509577
3742.98314	0.0962416306
3741.55343	0.0966031104
3740.12372	0.0967713445
3738.69401	0.0967810452
3737.26430	0.0967450812
3735.83458	0.0967929885
3734.40487	0.0969829485
3732.97516	0.0972548798
3731.54545	0.0975016430
3730.11574	0.0976641998
3728.68603	0.0977512076
3727.25632	0.0978142694
3725.82661	0.0979266018
3724.39690	0.0981515869
3722.96719	0.0984997228
3721.53748	0.0989136025
3720.10776	0.0993074104
3718.67805	0.0996180773
3717.24834	0.0998257622
3715.81863	0.0999483913
3714.38892	0.1000449881
3712.95921	0.1002202332
3711.52950	0.1005763933
3710.09979	0.1011131629
3708.67008	0.1017043740
3707.24037	0.1022219360
3705.81066	0.1026467830
3704.38094	0.1030528173
3702.95123	0.1035280302
3701.52152	0.1041048095
3700.09181	0.1047436967
3698.66210	0.1053747162
3697.23239	0.1059494242
3695.80268	0.1064633057
3694.37297	0.1069651470
3692.94326	0.1075635180
3691.51355	0.1084017083
3690.08384	0.1095492244
3688.65412	0.1108821929
3687.22441	0.1121478006
3685.79470	0.1131792143
3684.36499	0.1139753833
3682.93528	0.1146225631
3681.50557	0.1152217388
3680.07586	0.1158907935
3678.64615	0.1167817339
3677.21644	0.1180403233
3675.78673	0.1196975186
3674.35702	0.1216307133
3672.92730	0.1236976385
3671.49759	0.1258642375
3670.06788	0.1281374693
3668.63817	0.1304358393
3667.20846	0.1326132119
3665.77875	0.1345869601
3664.34904	0.1363967955
3662.91933	0.1381516159
3661.48962	0.1399555057
3660.05991	0.1418727934
3658.63020	0.1439124495
3657.20048	0.1460134089
3655.77077	0.1480686814
3654.34106	0.1500354856
3652.91135	0.1520829797
3651.48164	0.1546244174
3650.05193	0.1580578089
3648.62222	0.1622489244
3647.19251	0.1664240211
3645.76280	0.1698993593
3644.33309	0.1726380885
3642.90338	0.1750070602
3641.47366	0.1773655713
3640.04395	0.1798903346
3638.61424	0.1825721562
3637.18453	0.1852838397
3635.75482	0.1878832877
3634.32511	0.1903475672
3632.89540	0.1928929389
3631.46569	0.1959608197
3630.03598	0.1999000162
3628.60627	0.2044503689
3627.17656	0.2087387741
3625.74684	0.2120835036
3624.31713	0.2145472765
3622.88742	0.2166900933
3621.45771	0.2191023976
3620.02800	0.2220918238
3618.59829	0.2255587131
3617.16858	0.2291302383
3615.73887	0.2324876487
3614.30916	0.2355867475
3612.87945	0.2386135459
3611.44974	0.2418049872
3610.02003	0.2452585250
3608.59031	0.2488329411
3607.16060	0.2522411048
3605.73089	0.2552768588
3604.30118	0.2579530478
3602.87147	0.2604481578
3601.44176	0.2629725039
3600.01205	0.2656815946
3598.58234	0.2686456442
3597.15263	0.2718217671
3595.72292	0.2750325203
3594.29321	0.2780430615
3592.86349	0.2807507813
3591.43378	0.2833342850
3590.00407	0.2861832678
3588.57436	0.2895979285
3587.14465	0.2934684455
3585.71494	0.2973001003
3584.28523	0.3006401658
3582.85552	0.3034227192
3581.42581	0.3058976829
3579.99610	0.3083637953
3578.56639	0.3109780550
3577.13667	0.3136967719
3575.70696	0.3163332343
3574.27725	0.3187023401
3572.84754	0.3207920790
3571.41783	0.3228562176
3569.98812	0.3253442645
3568.55841	0.3286349475
3567.12870	0.3326764703
3565.69899	0.3369013667
3564.26928	0.3406597972
3562.83957	0.3437148631
3561.40985	0.3462512791
3559.98014	0.3485694528
3558.55043	0.3508712351
3557.12072	0.3532387018
3555.69101	0.3556962311
3554.26130	0.3582398593
3552.83159	0.3608349264
3551.40188	0.3634343147
3549.97217	0.3660332561
3548.54246	0.3686988652
3547.11275	0.3715127110
3545.68303	0.3744716942
3544.25332	0.3774480820
3542.82361	0.3802710772
3541.39390	0.3828522563
3539.96419	0.3852339089
3538.53448	0.3875331879
3537.10477	0.3898420632
3535.67506	0.3921655118
3534.24535	0.3944480121
3532.81564	0.3966577053
3531.38593	0.3988443613
3529.95621	0.4011128247
3528.52650	0.4035387635
3527.09679	0.4061161578
3525.66708	0.4087805748
3524.23737	0.4114663303
3522.80766	0.4141219854
3521.37795	0.4166820943
3519.94824	0.4190627038
3518.51853	0.4212120771
3517.08882	0.4231659472
3515.65911	0.4250412583
3514.22939	0.4269691706
3512.79968	0.4290208817
3511.36997	0.4311777651
3509.94026	0.4333539903
3508.51055	0.4354577661
3507.08084	0.4374589622
3505.65113	0.4394147098
3504.22142	0.4414207935
3502.79171	0.4435185790
3501.36200	0.4456439316
3499.93229	0.4476898611
3498.50257	0.4496144354
3497.07286	0.4514754117
3495.64315	0.4533524811
3494.21344	0.4552569389
3492.78373	0.4571303725
3491.35402	0.4589263499
3489.92431	0.4606629014
3488.49460	0.4623879790
3487.06489	0.4641205370
3485.63518	0.4658489823
3484.20547	0.4675791562
3482.77575	0.4693448544
3481.34604	0.4711581171
3479.91633	0.4729726315
3478.48662	0.4747211039
3477.05691	0.4763810933
3475.62720	0.4779792130
3474.19749	0.4795355201
3472.76778	0.4810301065
3471.33807	0.4824431837
3469.90836	0.4838112593
3468.47865	0.4852184355
3467.04893	0.4867270887
3465.61922	0.4883288145
3464.18951	0.4899609387
3462.75980	0.4915575981
3461.33009	0.4930806160
3459.90038	0.4945170879
3458.47067	0.4958723187
3457.04096	0.4971640706
3455.61125	0.4984060228
3454.18154	0.4995936751
3452.75183	0.5007176995
3451.32212	0.5018007755
3449.89240	0.5029076338
3448.46269	0.5040990114
3447.03298	0.5053720474
3445.60327	0.5066614151
3444.17356	0.5079016089
3442.74385	0.5090752244
3441.31414	0.5101926327
3439.88443	0.5112442374
3438.45472	0.5122027993
3437.02501	0.5130696297
3435.59530	0.5138987303
3434.16558	0.5147632957
3432.73587	0.5156980753
3431.30616	0.5166846514
3429.87645	0.5176779628
3428.44674	0.5186359882
3427.01703	0.5195326209
3425.58732	0.5203634501
3424.15761	0.5211592317
3422.72790	0.5219787955
3421.29819	0.5228686333
3419.86848	0.5238193870
3418.43876	0.5247703791
3417.00905	0.5256606936
3415.57934	0.5264662504
3414.14963	0.5271927714
3412.71992	0.5278484225
3411.29021	0.5284411907
3409.86050	0.5289928317
3408.43079	0.5295383930
3407.00108	0.5300979018
3405.57137	0.5306583643
3404.14166	0.5311897993
3402.71194	0.5316787958
3401.28223	0.5321391821
3399.85252	0.5325981379
3398.42281	0.5330808759
3396.99310	0.5336092114
3395.56339	0.5341951847
3394.13368	0.5348198414
3392.70397	0.5354277492
3391.27426	0.5359568596
3389.84455	0.5363867879
3388.41484	0.5367549062
3386.98512	0.5371227860
3385.55541	0.5375325680
3384.12570	0.5379922390
3382.69599	0.5384923220
3381.26628	0.5390243530
3379.83657	0.5395807028
3378.40686	0.5401558876
3376.97715	0.5407537222
3375.54744	0.5413940549
3374.11773	0.5420947671
3372.68802	0.5428480506
3371.25830	0.5436146259
3369.82859	0.5443456769
3368.39888	0.5450116396
3366.96917	0.5456075668
3365.53946	0.5461441875
3364.10975	0.5466343164
3362.68004	0.5470913649
3361.25033	0.5475289822
3359.82062	0.5479682684
3358.39091	0.5484445691
3356.96120	0.5490062237
3355.53148	0.5496889949
3354.10177	0.5504797697
3352.67206	0.5513048768
3351.24235	0.5520730615
3349.81264	0.5527412295
3348.38293	0.5533452034
3346.95322	0.5539696813
3345.52351	0.5546823144
3344.09380	0.5554954410
3342.66409	0.5563728213
3341.23438	0.5572574735
3339.80466	0.5580962300
3338.37495	0.5588510633
3336.94524	0.5595136881
3335.51553	0.5601201653
3334.08582	0.5607457161
3332.65611	0.5614734888
3331.22640	0.5623553395
3329.79669	0.5633862615
3328.36698	0.5645089149
3326.93727	0.5656402111
3325.50756	0.5667137504
3324.07784	0.5677145123
3322.64813	0.5686849952
3321.21842	0.5696908236
3319.78871	0.5707712770
3318.35900	0.5719138980
3316.92929	0.5730830431
3315.49958	0.5742692351
3314.06987	0.5755134225
3312.64016	0.5768738389
3311.21045	0.5783641338
3309.78074	0.5799114704
3308.35102	0.5813715458
3306.92131	0.5825959444
3305.49160	0.5835075378
3304.06189	0.5841448903
3302.63218	0.5846458077
3301.20247	0.5851767659
3299.77276	0.5858447552
3298.34305	0.5866430402
3296.91334	0.5874632597
3295.48363	0.5881567597
3294.05392	0.5886082649
3292.62421	0.5887733698
3291.19449	0.5886783600
3289.76478	0.5883886814
3288.33507	0.5879678130
3286.90536	0.5874452591
3285.47565	0.5868077278
3284.04594	0.5860191584
3282.61623	0.5850564837
3281.18652	0.5839351416
3279.75681	0.5827039480
3278.32710	0.5814128518
3276.89739	0.5800709724
3275.46767	0.5786188841
3274.03796	0.5769430399
3272.60825	0.5749242306
3271.17854	0.5725096464
3269.74883	0.5697512627
3268.31912	0.5667876601
3266.88941	0.5637743473
3265.45970	0.5608091354
3264.02999	0.5579087138
3262.60028	0.5550435185
3261.17057	0.5521879792
3259.74085	0.5493385792
3258.31114	0.5464951992
3256.88143	0.5436434746
3255.45172	0.5407735109
3254.02201	0.5379095674
3252.59230	0.5351119041
3251.16259	0.5324349403
3249.73288	0.5298792124
3248.30317	0.5273898244
3246.87346	0.5249029994
3245.44375	0.5224010944
3244.01403	0.5199271441
3242.58432	0.5175547600
3241.15461	0.5153442025
3239.72490	0.5133134723
3238.29519	0.5114368200
3236.86548	0.5096551776
3235.43577	0.5078968406
3234.00606	0.5061057210
3232.57635	0.5042648911
3231.14664	0.5024019480
3229.71693	0.5005640984
3228.28721	0.4987876117
3226.85750	0.4970796406
3225.42779	0.4954333901
3223.99808	0.4938458502
3222.56837	0.4923253655
3221.13866	0.4908769131
3219.70895	0.4894869030
3218.27924	0.4881215394
3216.84953	0.4867445230
3215.41982	0.4853349030
3213.99011	0.4838950336
3212.56039	0.4824446142
3211.13068	0.4810022414
3209.70097	0.4795722663
3208.27126	0.4781375825
3206.84155	0.4766668677
3205.41184	0.4751303494
3203.98213	0.4735157192
3202.55242	0.4718380868
3201.12271	0.4701341093
3199.69300	0.4684470892
3198.26329	0.4668059349
3196.83357	0.4652109444
3195.40386	0.4636339545
3193.97415	0.4620341659
3192.54444	0.4603809416
3191.11473	0.4586666524
3189.68502	0.4569078982
3188.25531	0.4551343620
3186.82560	0.4533729255
3185.39589	0.4516349435
3183.96618	0.4499107599
3182.53647	0.4481765628
3181.10675	0.4464094937
3179.67704	0.4446056187
3178.24733	0.4427773952
3176.81762	0.4409380257
3175.38791	0.4390842617
3173.95820	0.4371980429
3172.52849	0.4352669418
3171.09878	0.4333032966
3169.66907	0.4313407540
3168.23936	0.4294114113
3166.80965	0.4275248945
3165.37993	0.4256664217
3163.95022	0.4238147736
3162.52051	0.4219613075
3161.09080	0.4201185703
3159.66109	0.4183119237
3158.23138	0.4165613353
3156.80167	0.4148635864
3155.37196	0.4131848812
3153.94225	0.4114745855
3152.51254	0.4096928537
3151.08283	0.4078362584
3149.65311	0.4059424102
3148.22340	0.4040720463
3146.79369	0.4022800624
3145.36398	0.4005927145
3143.93427	0.3990005851
3142.50456	0.3974660635
3141.07485	0.3959409297
3139.64514	0.3943904042
3138.21543	0.3928084671
3136.78572	0.3912183940
3135.35601	0.3896525204
3133.92629	0.3881311715
3132.49658	0.3866517246
3131.06687	0.3852016032
3129.63716	0.3837786913
3128.20745	0.3824029863
3126.77774	0.3811095953
3125.34803	0.3799285591
3123.91832	0.3788643181
3122.48861	0.3778876662
3121.05890	0.3769429922
3119.62919	0.3759687245
3118.19948	0.3749226928
3116.76976	0.3738004863
3115.34005	0.3726384342
3113.91034	0.3714936674
3112.48063	0.3704121709
3111.05092	0.3694017828
3109.62121	0.3684356511
3108.19150	0.3674825728
3106.76179	0.3665435016
3105.33208	0.3656584322
3103.90237	0.3648749590
3102.47266	0.3642030060
3101.04294	0.3636009097
3099.61323	0.3630061448
3098.18352	0.3623838723
3096.75381	0.3617489934
3095.32410	0.3611434400
3093.89439	0.3605958223
3092.46468	0.3601015210
3091.03497	0.3596355915
3089.60526	0.3591751456
3088.17555	0.3587090969
3086.74584	0.3582272232
3085.31612	0.3577089906
3083.88641	0.3571230471
3082.45670	0.3564347327
3081.02699	0.3556167185
3079.59728	0.3546591103
3078.16757	0.3535776436
3076.73786	0.3524182737
3075.30815	0.3512478173
3073.87844	0.3501319289
3072.44873	0.3491090536
3071.01902	0.3481727242
3069.58930	0.3472742140
3068.15959	0.3463406265
3066.72988	0.3453038931
3065.30017	0.3441288769
3063.87046	0.3428261876
3062.44075	0.3414413333
3061.01104	0.3400250077
3059.58133	0.3386017382
3058.15162	0.3371604681
3056.72191	0.3356685936
3055.29220	0.3341000974
3053.86248	0.3324567974
3052.43277	0.3307712972
3051.00306	0.3290925026
3049.57335	0.3274643719
3048.14364	0.3259058893
3046.71393	0.3244030774
3045.28422	0.3229153156
3043.85451	0.3213973343
3042.42480	0.3198268116
3040.99509	0.3182178736
3039.56538	0.3166112006
3038.13566	0.3150427938
3036.70595	0.3135166168
3035.27624	0.3120002151
3033.84653	0.3104506135
3032.41682	0.3088460267
3030.98711	0.3071993589
3029.55740	0.3055452108
3028.12769	0.3039145768
3026.69798	0.3023237884
3025.26827	0.3007807732
3023.83856	0.2992984056
3022.40884	0.2978956103
3020.97913	0.2965853214
3019.54942	0.2953649461
3018.11971	0.2942159176
3016.69000	0.2931123376
3015.26029	0.2920292020
3013.83058	0.2909465134
3012.40087	0.2898549736
3010.97116	0.2887619436
3009.54145	0.2876978219
3008.11174	0.2867111564
3006.68202	0.2858540118
3005.25231	0.2851650417
3003.82260	0.2846616507
3002.39289	0.2843450308
3000.96318	0.2842103839
2999.53347	0.2842556238
2998.10376	0.2844792604
2996.67405	0.2848740518
2995.24434	0.2854208052
2993.81463	0.2860953212
2992.38492	0.2868839204
2990.95520	0.2877990901
2989.52549	0.2888804972
2988.09578	0.2901762426
2986.66607	0.2917166650
2985.23636	0.2934959531
2983.80665	0.2954759002
2982.37694	0.2976061702
2980.94723	0.2998466492
2979.51752	0.3021744192
2978.08781	0.3045792282
2976.65810	0.3070506155
2975.22838	0.3095718324
2973.79867	0.3121225834
2972.36896	0.3146812916
2970.93925	0.3172224164
2969.50954	0.3197043836
2968.07983	0.3220593929
2966.65012	0.3241918683
2965.22041	0.3259914219
2963.79070	0.3273521960
2962.36099	0.3281899989
2960.93128	0.3284496665
2959.50157	0.3281076252
2958.07185	0.3271738291
2956.64214	0.3256994188
2955.21243	0.3237880468
2953.78272	0.3216028512
2952.35301	0.3193564117
2950.92330	0.3172791600
2949.49359	0.3155706823
2948.06388	0.3143573999
2946.63417	0.3136778176
2945.20446	0.3135018051
2943.77475	0.3137651086
2942.34503	0.3143959343
2940.91532	0.3153208792
2939.48561	0.3164600730
2938.05590	0.3177239299
2936.62619	0.3190166056
2935.19648	0.3202432096
2933.76677	0.3213135302
2932.33706	0.3221486211
2930.90735	0.3226884007
2929.47764	0.3228967488
2928.04793	0.3227570355
2926.61821	0.3222566545
2925.18850	0.3213701844
2923.75879	0.3200538754
2922.32908	0.3182563484
2920.89937	0.3159405291
2919.46966	0.3131050169
2918.03995	0.3097971380
2916.61024	0.3061094582
2915.18053	0.3021660447
2913.75082	0.2981037796
2912.32111	0.2940579057
2910.89139	0.2901510000
2909.46168	0.2864831686
2908.03197	0.2831201255
2906.60226	0.2800842226
2905.17255	0.2773580253
2903.74284	0.2749018073
2902.31313	0.2726742327
2900.88342	0.2706429362
2899.45371	0.2687787712
2898.02400	0.2670465410
2896.59429	0.2654070258
2895.16457	0.2638332844
2893.73486	0.2623310089
2892.30515	0.2609419823
2890.87544	0.2597309649
2889.44573	0.2587620616
2888.01602	0.2580778599
2886.58631	0.2576924860
2885.15660	0.2575940192
2883.72689	0.2577534020
2882.29718	0.2581320405
2880.86747	0.2586802840
2879.43775	0.2593249977
2878.00804	0.2599499226
2876.57833	0.2603899240
2875.14862	0.2604547441
2873.71891	0.2599821985
2872.28920	0.2588980198
2870.85949	0.2572473586
2869.42978	0.2551837265
2868.00007	0.2529209256
2866.57036	0.2506750822
2865.14065	0.2486200631
2863.71093	0.2468648851
2862.28122	0.2454491258
2860.85151	0.2443498224
2859.42180	0.2434917688
2857.99209	0.2427549958
2856.56238	0.2419796139
2855.13267	0.2409731299
2853.70296	0.2395334095
2852.27325	0.2374922186
2850.84354	0.2347706556
2849.41383	0.2314184755
2847.98411	0.2276166379
2846.55440	0.2236352116
2845.12469	0.2197609246
2843.69498	0.2162230313
2842.26527	0.2131428123
2840.83556	0.2105286121
2839.40585	0.2083103806
2837.97614	0.2063935697
2836.54643	0.2047010511
2835.11672	0.2031859457
2833.68701	0.2018223405
2832.25729	0.2005913407
2830.82758	0.1994738877
2829.39787	0.1984523535
2827.96816	0.1975122988
2826.53845	0.1966405958
2825.10874	0.1958234906
2823.67903	0.1950453669
2822.24932	0.1942907274
2820.81961	0.1935467422
2819.38990	0.1928067356
2817.96019	0.1920740157
2816.53047	0.1913608462
2815.10076	0.1906799674
2813.67105	0.1900328100
2812.24134	0.1894018501
2810.81163	0.1887584031
2809.38192	0.1880793422
2807.95221	0.1873629242
2806.52250	0.1866314262
2805.09279	0.1859190166
2803.66308	0.1852538586
2802.23337	0.1846422255
2800.80366	0.1840670556
2799.37394	0.1834983975
2797.94423	0.1829130948
2796.51452	0.1823073477
2795.08481	0.1816947311
2793.65510	0.1810876578
2792.22539	0.1804812253
2790.79568	0.1798533201
2789.36597	0.1791824400
2787.93626	0.1784680188
2786.50655	0.1777360439
2785.07684	0.1770257056
2783.64712	0.1763709784
2782.21741	0.1757875085
2780.78770	0.1752712578
2779.35799	0.1748010516
2777.92828	0.1743433177
2776.49857	0.1738595068
2775.06886	0.1733206511
2773.63915	0.1727206856
2772.20944	0.1720805764
2770.77973	0.1714375019
2769.35002	0.1708243638
2767.92030	0.1702552736
2766.49059	0.1697240323
2765.06088	0.1692130119
2763.63117	0.1687056571
2762.20146	0.1681916416
2760.77175	0.1676666439
2759.34204	0.1671301574
2757.91233	0.1665867418
2756.48262	0.1660467237
2755.05291	0.1655241698
2753.62320	0.1650282890
2752.19348	0.1645544916
2750.76377	0.1640838087
2749.33406	0.1635920852
2747.90435	0.1630639583
2746.47464	0.1625001580
2745.04493	0.1619130373
2743.61522	0.1613158584
2742.18551	0.1607140005
2740.75580	0.1601055562
2739.32609	0.1594872773
2737.89638	0.1588623971
2736.46666	0.1582426131
2735.03695	0.1576465070
2733.60724	0.1570922583
2732.17753	0.1565877795
2730.74782	0.1561229527
2729.31811	0.1556687206
2727.88840	0.1551870257
2726.45869	0.1546476930
2725.02898	0.1540403813
2723.59927	0.1533784419
2722.16956	0.1526894420
2720.73984	0.1520042568
2719.31013	0.1513476521
2717.88042	0.1507346332
2716.45071	0.1501700431
2715.02100	0.1496477127
2713.59129	0.1491533369
2712.16158	0.1486697793
2710.73187	0.1481861621
2709.30216	0.1477022618
2707.87245	0.1472265571
2706.44274	0.1467673779
2705.01302	0.1463252604
2703.58331	0.1458933204
2702.15360	0.1454634219
2700.72389	0.1450328529
2699.29418	0.1446041912
2697.86447	0.1441804916
2696.43476	0.1437625140
2695.00505	0.1433503330
2693.57534	0.1429465264
2692.14563	0.1425559372
2690.71592	0.1421802342
2689.28620	0.1418158412
2687.85649	0.1414577514
2686.42678	0.1411063522
2684.99707	0.1407685876
2683.56736	0.1404499412
2682.13765	0.1401432604
2680.70794	0.1398288608
2679.27823	0.1394839138
2677.84852	0.1390976012
2676.41881	0.1386754364
2674.98910	0.1382340342
2673.55938	0.1377899796
2672.12967	0.1373524219
2670.69996	0.1369246393
2669.27025	0.1365080178
2667.84054	0.1361057013
2666.41083	0.1357196569
2664.98112	0.1353477389
2663.55141	0.1349821836
2662.12170	0.1346129030
2660.69199	0.1342352927
2659.26228	0.1338538677
2657.83256	0.1334804446
2656.40285	0.1331247538
2654.97314	0.1327854395
2653.54343	0.1324488968
2652.11372	0.1320986152
2650.68401	0.1317282766
2649.25430	0.1313480884
2647.82459	0.1309791952
2646.39488	0.1306404769
2644.96517	0.1303377002
2643.53546	0.1300616413
2642.10575	0.1297940910
2640.67603	0.1295177937
2639.24632	0.1292234361
2637.81661	0.1289129257
2636.38690	0.1285981983
2634.95719	0.1282957941
2633.52748	0.1280190498
2632.09777	0.1277703047
2630.66806	0.1275393218
2629.23835	0.1273080260
2627.80864	0.1270601004
2626.37893	0.1267885417
2624.94921	0.1264962703
2623.51950	0.1261926591
2622.08979	0.1258883029
2620.66008	0.1255910397
2619.23037	0.1253039539
2617.80066	0.1250254065
2616.37095	0.1247494966
2614.94124	0.1244711801
2613.51153	0.1241894141
2612.08182	0.1239094213
2610.65211	0.1236383095
2609.22239	0.1233786494
2607.79268	0.1231265739
2606.36297	0.1228733957
2604.93326	0.1226133034
2603.50355	0.1223465726
2602.07384	0.1220790073
2600.64413	0.1218174994
2599.21442	0.1215659827
2597.78471	0.1213240251
2596.35500	0.1210885271
2594.92529	0.1208562702
2593.49557	0.1206264198
2592.06586	0.1204016209
2590.63615	0.1201860830
2589.20644	0.1199818403
2587.77673	0.1197860837
2586.34702	0.1195921600
2584.91731	0.1193956286
2583.48760	0.1191996634
2582.05789	0.1190144047
2580.62818	0.1188502312
2579.19847	0.1187093854
2577.76875	0.1185819209
2576.33904	0.1184513271
2574.90933	0.1183038801
2573.47962	0.1181368157
2572.04991	0.1179596186
2570.62020	0.1177877933
2569.19049	0.1176350042
2567.76078	0.1175061241
2566.33107	0.1173964143
2564.90136	0.1172967702
2563.47165	0.1172000244
2562.04193	0.1171053723
2560.61222	0.1170162633
2559.18251	0.1169345304
2557.75280	0.1168557182
2556.32309	0.1167698130
2554.89338	0.1166670620
2553.46367	0.1165446937
2552.03396	0.1164087281
2550.60425	0.1162709370
2549.17454	0.1161435768
2547.74483	0.1160346791
2546.31511	0.1159469411
2544.88540	0.1158770993
2543.45569	0.1158168390
2542.02598	0.1157556698
2540.59627	0.1156843379
2539.16656	0.1155995056
2537.73685	0.1155039519
2536.30714	0.1154049113
2534.87743	0.1153104752
2533.44772	0.1152253821
2532.01801	0.1151519790
2530.58829	0.1150907353
2529.15858	0.1150405332
2527.72887	0.1149971783
2526.29916	0.1149521843
2524.86945	0.1148938984
2523.43974	0.1148140803
2522.01003	0.1147135049
2520.58032	0.1146032512
2519.15061	0.1144979447
2517.72090	0.1144079864
2516.29119	0.1143334061
2514.86147	0.1142665520
2513.43176	0.1141990349
2512.00205	0.1141280979
2510.57234	0.1140568703
2509.14263	0.1139903590
2507.71292	0.1139320359
2506.28321	0.1138826758
2504.85350	0.1138398424
2503.42379	0.1137990057
2501.99408	0.1137533188
2500.56437	0.1136948317
2499.13465	0.1136194021
2497.70494	0.1135301664
2496.27523	0.1134382263
2494.84552	0.1133575588
2493.41581	0.1132987514
2491.98610	0.1132624969
2490.55639	0.1132404208
2489.12668	0.1132215783
2487.69697	0.1131983250
2486.26726	0.1131696030
2484.83755	0.1131383330
2483.40784	0.1131061912
2481.97812	0.1130716950
2480.54841	0.1130320355
2479.11870	0.1129861027
2477.68899	0.1129340604
2476.25928	0.1128754765
2474.82957	0.1128088087
2473.39986	0.1127337664
2471.97015	0.1126535386
2470.54044	0.1125737578
2469.11073	0.1124981567
2467.68102	0.1124261171
2466.25130	0.1123557687
2464.82159	0.1122886166
2463.39188	0.1122316271
2461.96217	0.1121919453
2460.53246	0.1121698916
2459.10275	0.1121572554
2457.67304	0.1121410653
2456.24333	0.1121102720
2454.81362	0.1120604128
2453.38391	0.1119945720
2451.95420	0.1119204760
2450.52448	0.1118472964
2449.09477	0.1117810607
2447.66506	0.1117233709
2446.23535	0.1116705090
2444.80564	0.1116177812
2443.37593	0.1115619540
2441.94622	0.1115024239
2440.51651	0.1114391461
2439.08680	0.1113729030
2437.65709	0.1113048643
2436.22738	0.1112373099
2434.79766	0.1111713275
2433.36795	0.1111048907
2431.93824	0.1110329553
2430.50853	0.1109499261
2429.07882	0.1108539551
2427.64911	0.1107482836
2426.21940	0.1106392965
2424.78969	0.1105346456
2423.35998	0.1104396284
2421.93027	0.1103563830
2420.50056	0.1102828979
2419.07084	0.1102125645
2417.64113	0.1101380959
2416.21142	0.1100555137
2414.78171	0.1099665686
2413.35200	0.1098769531
2411.92229	0.1097912118
2410.49258	0.1097104251
2409.06287	0.1096322536
2407.63316	0.1095549539
2406.20345	0.1094798744
2404.77374	0.1094107628
2403.34402	0.1093487591
2401.91431	0.1092901304
2400.48460	0.1092266738
2399.05489	0.1091509163
2397.62518	0.1090610996
2396.19547	0.1089628488
2394.76576	0.1088656187
2393.33605	0.1087767184
2391.90634	0.1086975187
2390.47663	0.1086217836
2389.04692	0.1085379869
2387.61720	0.1084308848
2386.18749	0.1082850099
2384.75778	0.1080895066
2383.32807	0.1078437567
2381.89836	0.1075583845
2380.46865	0.1072520167
2379.03894	0.1069407389
2377.60923	0.1066286266
2376.17952	0.1063044965
2374.74981	0.1059479415
2373.32010	0.1055416316
2371.89038	0.1050820872
2370.46067	0.1045823842
2369.03096	0.1040688828
2367.60125	0.1035775766
2366.17154	0.1031516492
2364.74183	0.1028355509
2363.31212	0.1026586890
2361.88241	0.1026142612
2360.45270	0.1026595384
2359.02299	0.1027516499
2357.59328	0.1028888598
2356.16356	0.1031056643
2354.73385	0.1034096032
2353.30414	0.1037391350
2351.87443	0.1039968133
2350.44472	0.1041080654
2349.01501	0.1040471047
2347.58530	0.1038317084
2346.15559	0.1035113409
2344.72588	0.1031575575
2343.29617	0.1028452590
2341.86646	0.1026225537
2340.43674	0.1024922505
2339.00703	0.1024303064
2337.57732	0.1024160236
2336.14761	0.1024448946
2334.71790	0.1025178507
2333.28819	0.1026272774
2331.85848	0.1027489007
2330.42877	0.1028483808
2328.99906	0.1028990299
2327.56935	0.1028982401
2326.13964	0.1028691754
2324.70993	0.1028467044
2323.28021	0.1028580219
2321.85050	0.1029125452
2320.42079	0.1030023471
2318.99108	0.1031093672
2317.56137	0.1032138914
2316.13166	0.1033003777
2314.70195	0.1033613607
2313.27224	0.1033987030
2311.84253	0.1034203097
2310.41282	0.1034355238
2308.98311	0.1034489870
2307.55339	0.1034586132
2306.12368	0.1034576297
2304.69397	0.1034394950
2303.26426	0.1034016237
2301.83455	0.1033484489
2300.40484	0.1032897010
2298.97513	0.1032357886
2297.54542	0.1031928435
2296.11571	0.1031587720
2294.68600	0.1031258777
2293.25629	0.1030853465
2291.82657	0.1030326709
2290.39686	0.1029686183
2288.96715	0.1028987318
2287.53744	0.1028292179
2286.10773	0.1027633622
2284.67802	0.1026987582
2283.24831	0.1026275083
2281.81860	0.1025402024
2280.38889	0.1024328321
2278.95918	0.1023108438
2277.52947	0.1021876708
2276.09975	0.1020771116
2274.67004	0.1019857302
2273.24033	0.1019095853
2271.81062	0.1018396765
2270.38091	0.1017706320
2268.95120	0.1017047986
2267.52149	0.1016488597
2266.09178	0.1016054824
2264.66207	0.1015692428
2263.23236	0.1015298963
2261.80265	0.1014807820
2260.37293	0.1014240831
2258.94322	0.1013678834
2257.51351	0.1013183221
2256.08380	0.1012741029
2254.65409	0.1012281477
2253.22438	0.1011732817
2251.79467	0.1011069864
2250.36496	0.1010319814
2248.93525	0.1009544730
2247.50554	0.1008806974
2246.07583	0.1008147746
2244.64611	0.1007564291
2243.21640	0.1007025689
2241.78669	0.1006509662
2240.35698	0.1006020457
2238.92727	0.1005577669
2237.49756	0.1005175635
2236.06785	0.1004767790
2234.63814	0.1004303619
2233.20843	0.1003781706
2231.77872	0.1003267393
2230.34901	0.1002845690
2228.91929	0.1002551541
2227.48958	0.1002338305
2226.05987	0.1002105847
2224.63016	0.1001763865
2223.20045	0.1001284644
2221.77074	0.1000707671
2220.34103	0.1000100821
2218.91132	0.0999516174
2217.48161	0.0998961031
2216.05190	0.0998412073
2214.62219	0.0997847170
2213.19247	0.0997266173
2211.76276	0.0996677354
2210.33305	0.0996068120
2208.90334	0.0995407254
2207.47363	0.0994669646
2206.04392	0.0993875191
2204.61421	0.0993082225
2203.18450	0.0992357060
2201.75479	0.0991740301
2200.32508	0.0991229638
2198.89537	0.0990790278
2197.46565	0.0990365595
2196.03594	0.0989897698
2194.60623	0.0989350230
2193.17652	0.0988725796
2191.74681	0.0988046825
2190.31710	0.0987313390
2188.88739	0.0986497253
2187.45768	0.0985565931
2186.02797	0.0984526649
2184.59826	0.0983453244
2183.16855	0.0982443094
2181.73883	0.0981569439
2180.30912	0.0980844572
2178.87941	0.0980225503
2177.44970	0.0979645848
2176.01999	0.0979035795
2174.59028	0.0978352204
2173.16057	0.0977585390
2171.73086	0.0976746678
2170.30115	0.0975868404
2168.87144	0.0974992439
2167.44173	0.0974174440
2166.01202	0.0973468274
2164.58230	0.0972890481
2163.15259	0.0972375870
2161.72288	0.0971794948
2160.29317	0.0971020907
2158.86346	0.0970017835
2157.43375	0.0968862921
2156.00404	0.0967698246
2154.57433	0.0966641605
2153.14462	0.0965720341
2151.71491	0.0964882374
2150.28520	0.0964040011
2148.85548	0.0963133872
2147.42577	0.0962162018
2145.99606	0.0961183235
2144.56635	0.0960277095
2143.13664	0.0959491506
2141.70693	0.0958799645
2140.27722	0.0958105698
2138.84751	0.0957278162
2137.41780	0.0956223458
2135.98809	0.0954930261
2134.55838	0.0953491703
2133.12866	0.0952070728
2131.69895	0.0950821042
2130.26924	0.0949810669
2128.83953	0.0948982835
2127.40982	0.0948202237
2125.98011	0.0947326720
2124.55040	0.0946290493
2123.12069	0.0945118666
2121.69098	0.0943909511
2120.26127	0.0942773446
2118.83156	0.0941773951
2117.40184	0.0940886214
2115.97213	0.0940000340
2114.54242	0.0938985795
2113.11271	0.0937779322
2111.68300	0.0936438590
2110.25329	0.0935106054
2108.82358	0.0933908671
2107.39387	0.0932878479
2105.96416	0.0931957364
2104.53445	0.0931045339
2103.10474	0.0930063650
2101.67502	0.0928967074
2100.24531	0.0927743167
2098.81560	0.0926404297
2097.38589	0.0924995393
2095.95618	0.0923583061
2094.52647	0.0922233313
2093.09676	0.0920982510
2091.66705	0.0919833854
2090.23734	0.0918766707
2088.80763	0.0917742029
2087.37792	0.0916704163
2085.94820	0.0915580317
2084.51849	0.0914310366
2083.08878	0.0912868902
2081.65907	0.0911285877
2080.22936	0.0909625515
2078.79965	0.0907951146
2077.36994	0.0906302929
2075.94023	0.0904685929
2074.51052	0.0903081000
2073.08081	0.0901466161
2071.65110	0.0899827406
2070.22138	0.0898181349
2068.79167	0.0896574706
2067.36196	0.0895063430
2065.93225	0.0893675759
2064.50254	0.0892380103
2063.07283	0.0891089588
2061.64312	0.0889710188
2060.21341	0.0888197795
2058.78370	0.0886583403
2057.35399	0.0884949267
2055.92428	0.0883376077
2054.49456	0.0881889090
2053.06485	0.0880462825
2051.63514	0.0879039839
2050.20543	0.0877567902
2048.77572	0.0876009762
2047.34601	0.0874348581
2045.91630	0.0872605443
2044.48659	0.0870850086
2043.05688	0.0869194344
2041.62717	0.0867733359
2040.19746	0.0866494700
2038.76774	0.0865420103
2037.33803	0.0864413306
2035.90832	0.0863397866
2034.47861	0.0862324983
2033.04890	0.0861145929
2031.61919	0.0859790146
2030.18948	0.0858207121
2028.75977	0.0856417194
2027.33006	0.0854529962
2025.90035	0.0852698386
2024.47064	0.0851046145
2023.04092	0.0849626809
2021.61121	0.0848429203
2020.18150	0.0847397372
2018.75179	0.0846439078
2017.32208	0.0845441744
2015.89237	0.0844304711
2014.46266	0.0842976198
2013.03295	0.0841469020
2011.60324	0.0839853063
2010.17353	0.0838231072
2008.74382	0.0836727768
2007.31411	0.0835455582
2005.88439	0.0834480152
2004.45468	0.0833780989
2003.02497	0.0833255947
2001.59526	0.0832754821
2000.16555	0.0832137465
1998.73584	0.0831317008
1997.30613	0.0830301791
1995.87642	0.0829188749
1994.44671	0.0828116089
1993.01700	0.0827197805
1991.58729	0.0826460347
1990.15757	0.0825852305
1988.72786	0.0825295374
1987.29815	0.0824734122
1985.86844	0.0824147016
1984.43873	0.0823546201
1983.00902	0.0822970420
1981.57931	0.0822475851
1980.14960	0.0822086707
1978.71989	0.0821750760
1977.29018	0.0821345747
1975.86047	0.0820751861
1974.43075	0.0819931999
1973.00104	0.0818957239
1971.57133	0.0817973092
1970.14162	0.0817145631
1968.71191	0.0816618577
1967.28220	0.0816441104
1965.85249	0.0816506073
1964.42278	0.0816562921
1962.99307	0.0816371739
1961.56336	0.0815859810
1960.13365	0.0815156102
1958.70393	0.0814472511
1957.27422	0.0813943595
1955.84451	0.0813573599
1954.41480	0.0813290179
1952.98509	0.0813012943
1951.55538	0.0812666491
1950.12567	0.0812179297
1948.69596	0.0811512694
1947.26625	0.0810708031
1945.83654	0.0809897259
1944.40683	0.0809237584
1942.97711	0.0808841214
1941.54740	0.0808735490
1940.11769	0.0808866099
1938.68798	0.0809128061
1937.25827	0.0809409395
1935.82856	0.0809636489
1934.39885	0.0809798986
1932.96914	0.0809910670
1931.53943	0.0809939057
1930.10972	0.0809790269
1928.68001	0.0809393823
1927.25029	0.0808791891
1925.82058	0.0808134601
1924.39087	0.0807593316
1922.96116	0.0807291269
1921.53145	0.0807297826
1920.10174	0.0807646960
1918.67203	0.0808281153
1917.24232	0.0809006467
1915.81261	0.0809560716
1914.38290	0.0809784010
1912.95319	0.0809728503
1911.52347	0.0809604675
1910.09376	0.0809652060
1908.66405	0.0810026079
1907.23434	0.0810745731
1905.80463	0.0811694041
1904.37492	0.0812644958
1902.94521	0.0813361332
1901.51550	0.0813730359
1900.08579	0.0813831463
1898.65608	0.0813864619
1897.22637	0.0813998505
1895.79665	0.0814283937
1894.36694	0.0814706683
1892.93723	0.0815273225
1891.50752	0.0816014111
1890.07781	0.0816920996
1888.64810	0.0817924961
1887.21839	0.0818941966
1885.78868	0.0819914192
1884.35897	0.0820799395
1882.92926	0.0821550861
1881.49955	0.0822145492
1880.06983	0.0822606310
1878.64012	0.0822957605
1877.21041	0.0823152885
1875.78070	0.0823097154
1874.35099	0.0822770521
1872.92128	0.0822342560
1871.49157	0.0822153315
1870.06186	0.0822559074
1868.63215	0.0823730156
1867.20244	0.0825525150
1865.77273	0.0827573910
1864.34301	0.0829476416
1862.91330	0.0830977857
1861.48359	0.0832038373
1860.05388	0.0832812563
1858.62417	0.0833537281
1857.19446	0.0834379494
1855.76475	0.0835357681
1854.33504	0.0836391971
1852.90533	0.0837374032
1851.47562	0.0838194340
1850.04591	0.0838775262
1848.61619	0.0839182511
1847.18648	0.0839733109
1845.75677	0.0840887129
1844.32706	0.0842878446
1842.89735	0.0845438316
1841.46764	0.0848021656
1840.03793	0.0850270614
1838.60822	0.0852153450
1837.17851	0.0853762999
1835.74880	0.0855133533
1834.31909	0.0856299922
1832.88938	0.0857426524
1831.45966	0.0858807415
1830.02995	0.0860683545
1828.60024	0.0863101408
1827.17053	0.0865963846
1825.74082	0.0869167522
1824.31111	0.0872602016
1822.88140	0.0876098126
1821.45169	0.0879449993
1820.02198	0.0882550329
1818.59227	0.0885405391
1817.16256	0.0888035819
1815.73284	0.0890433341
1814.30313	0.0892671645
1812.87342	0.0895020142
1811.44371	0.0897802189
1810.01400	0.0901070535
1808.58429	0.0904489905
1807.15458	0.0907646790
1805.72487	0.0910443664
1804.29516	0.0913142338
1802.86545	0.0916074142
1801.43574	0.0919342116
1800.00602	0.0922795460
1798.57631	0.0926253721
1797.14660	0.0929727927
1795.71689	0.0933460668
1794.28718	0.0937812701
1792.85747	0.0943000838
1791.42776	0.0948782191
1789.99805	0.0954472274
1788.56834	0.0959464386
1787.13863	0.0963723958
1785.70892	0.0967757776
1784.27920	0.0972162485
1782.84949	0.0977145135
1781.41978	0.0982404128
1779.99007	0.0987472609
1778.56036	0.0992133841
1777.13065	0.0996548086
1775.70094	0.1001141518
1774.27123	0.1006549820
1772.84152	0.1013457850
1771.41181	0.1022060439
1769.98210	0.1031602174
1768.55238	0.1040888503
1767.12267	0.1049366370
1765.69296	0.1057480723
1764.26325	0.1066187620
1762.83354	0.1076291502
1761.40383	0.1088093072
1759.97412	0.1101457030
1758.54441	0.1116061732
1757.11470	0.1131543219
1755.68499	0.1147683933
1754.25528	0.1164792255
1752.82556	0.1183985248
1751.39585	0.1206654161
1749.96614	0.1233005896
1748.53643	0.1261091530
1747.10672	0.1288091093
1745.67701	0.1312604845
1744.24730	0.1335083991
1742.81759	0.1356385648
1741.38788	0.1376552284
1739.95817	0.1395093352
1738.52846	0.1412239373
1737.09874	0.1429709941
1735.66903	0.1450087428
1734.23932	0.1474995613
1732.80961	0.1503507346
1731.37990	0.1532962322
1729.95019	0.1561680883
1728.52048	0.1590117067
1727.09077	0.1619699448
1725.66106	0.1651373506
1724.23135	0.1685133725
1722.80164	0.1720840484
1721.37192	0.1759856790
1719.94221	0.1806156635
1718.51250	0.1864652485
1717.08279	0.1935300082
1715.65308	0.2008754313
1714.22337	0.2073271126
1712.79366	0.2125286460
1711.36395	0.2169496715
1709.93424	0.2212752551
1708.50453	0.2260086685
1707.07482	0.2313902527
1705.64510	0.2375246435
1704.21539	0.2446221709
1702.78568	0.2531917095
1701.35597	0.2639608085
1699.92626	0.2773291767
1698.49655	0.2925527692
1697.06684	0.3076810837
1695.63713	0.3208451569
1694.20742	0.3314105868
1692.77771	0.3397834003
1691.34800	0.3467205167
1689.91828	0.3530371785
1688.48857	0.3597025871
1687.05886	0.3679383397
1685.62915	0.3787758052
1684.19944	0.3918164968
1682.76973	0.4047217965
1681.34002	0.4152284563
1679.91031	0.4231328666
1678.48060	0.4297112226
1677.05089	0.4363276362
1675.62118	0.4437497854
1674.19147	0.4521202743
1672.76175	0.4612678587
1671.33204	0.4709622264
1669.90233	0.4808339179
1668.47262	0.4903012514
1667.04291	0.4989301264
1665.61320	0.5068413019
1664.18349	0.5145159364
1662.75378	0.5220990181
1661.32407	0.5289732218
1659.89436	0.5341994762
1658.46465	0.5373675227
1657.03493	0.5389136672
1655.60522	0.5397311449
1654.17551	0.5404239297
1652.74580	0.5406323671
1651.31609	0.5393693447
1649.88638	0.5362845063
1648.45667	0.5319596529
1647.02696	0.5271378160
1645.59725	0.5222035646
1644.16754	0.5171937346
1642.73783	0.5120500326
1641.30811	0.5068092346
1639.87840	0.5016390085
1638.44869	0.4967829585
1637.01898	0.4924085438
1635.58927	0.4883484244
1634.15956	0.4840570092
1632.72985	0.4790114164
1631.30014	0.4730200171
1629.87043	0.4660839140
1628.44072	0.4581505060
1627.01101	0.4490430951
1625.58129	0.4386256039
1624.15158	0.4270468652
1622.72187	0.4147260487
1621.29216	0.4020096362
1619.86245	0.3889268041
1618.43274	0.3753727973
1617.00303	0.3615594804
1615.57332	0.3481829464
1614.14361	0.3359646499
1612.71390	0.3250970840
1611.28419	0.3152807951
1609.85447	0.3061668277
1608.42476	0.2976689935
1606.99505	0.2899394929
1605.56534	0.2831352651
1604.13563	0.2772543132
1602.70592	0.2721839547
1601.27621	0.2678313553
1599.84650	0.2641606629
1598.41679	0.2611382604
1596.98708	0.2587038577
1595.55737	0.2568060160
1594.12765	0.2554338276
1592.69794	0.2545924187
1591.26823	0.2542670965
1589.83852	0.2544363141
1588.40881	0.2551057935
1586.97910	0.2562859356
1585.54939	0.2579164207
1584.11968	0.2598430812
1582.68997	0.2619230449
1581.26026	0.2641836107
1579.83055	0.2668805718
1578.40083	0.2703525126
1576.97112	0.2746920884
1575.54141	0.2795164585
1574.11170	0.2842420042
1572.68199	0.2886574268
1571.25228	0.2930697799
1569.82257	0.2978702188
1568.39286	0.3030028939
1566.96315	0.3079007566
1565.53344	0.3120232821
1564.10373	0.3154405653
1562.67401	0.3190107644
1561.24430	0.3242464662
1559.81459	0.3326260746
1558.38488	0.3437961638
1556.95517	0.3547244370
1555.52546	0.3627071679
1554.09575	0.3677026927
1552.66604	0.3709138036
1551.23633	0.3731955588
1549.80662	0.3747502863
1548.37691	0.3754279315
1546.94719	0.3751059473
1545.51748	0.3738938272
1544.08777	0.3720877469
1542.65806	0.3699541986
1541.22835	0.3674926460
1539.79864	0.3644587994
1538.36893	0.3607150614
1536.93922	0.3563656807
1535.50951	0.3515703082
1534.07980	0.3464455307
1532.65009	0.3410986066
1531.22037	0.3356343508
1529.79066	0.3301096261
1528.36095	0.3245193064
1526.93124	0.3188567162
1525.50153	0.3131941557
1524.07182	0.3077017069
1522.64211	0.3025681376
1521.21240	0.2978571355
1519.78269	0.2934093177
1518.35298	0.2888842225
1516.92327	0.2839241922
1515.49356	0.2783183455
1514.06384	0.2720381320
1512.63413	0.2651090324
1511.20442	0.2574117780
1509.77471	0.2486173958
1508.34500	0.2385708094
1506.91529	0.2280830294
1505.48558	0.2187777609
1504.05587	0.2114952654
1502.62616	0.2057608068
1501.19645	0.2007084340
1499.76674	0.1957535595
1498.33702	0.1907340139
1496.90731	0.1858202964
1495.47760	0.1812600344
1494.04789	0.1771328449
1492.61818	0.1733543277
1491.18847	0.1698515117
1489.75876	0.1666880250
1488.32905	0.1640310884
1486.89934	0.1619984657
1485.46963	0.1605654210
1484.03992	0.1596330106
1482.61020	0.1591340154
1481.18049	0.1590671837
1479.75078	0.1594840139
1478.32107	0.1604929268
1476.89136	0.1622866541
1475.46165	0.1650918424
1474.03194	0.1689019501
1472.60223	0.1731585562
1471.17252	0.1769574136
1469.74281	0.1797323972
1468.31310	0.1815324277
1466.88338	0.1827272773
1465.45367	0.1836591065
1464.02396	0.1845008433
1462.59425	0.1853230298
1461.16454	0.1862589419
1459.73483	0.1875677258
1458.30512	0.1894308031
1456.87541	0.1915476173
1455.44570	0.1931247860
1454.01599	0.1935846210
1452.58628	0.1929921508
1451.15656	0.1917345524
1449.72685	0.1901539564
1448.29714	0.1884464025
1446.86743	0.1866909862
1445.43772	0.1848975271
1444.00801	0.1830434352
1442.57830	0.1810943633
1441.14859	0.1790153682
1439.71888	0.1767872274
1438.28917	0.1744381487
1436.85946	0.1720749587
1435.42974	0.1698699594
1434.00003	0.1679934114
1432.57032	0.1665667146
1431.14061	0.1656721830
1429.71090	0.1653603017
1428.28119	0.1656193435
1426.85148	0.1663528681
1425.42177	0.1674277037
1423.99206	0.1687680334
1422.56235	0.1704095006
1421.13264	0.1724508852
1419.70292	0.1749086976
1418.27321	0.1775897145
1416.84350	0.1801673174
1415.41379	0.1824225336
1413.98408	0.1843671352
1412.55437	0.1861586571
1411.12466	0.1879579425
1409.69495	0.1898423284
1408.26524	0.1917920858
1406.83553	0.1937188059
1405.40582	0.1954956949
1403.97610	0.1969804168
1402.54639	0.1980497092
1401.11668	0.1986472756
1399.68697	0.1987998635
1398.25726	0.1985720694
1396.82755	0.1979961991
1395.39784	0.1970519572
1393.96813	0.1957190782
1392.53842	0.1940263659
1391.10871	0.1920310408
1389.67900	0.1897695065
1388.24928	0.1872457117
1386.81957	0.1844659150
1385.38986	0.1814761311
1383.96015	0.1783600301
1382.53044	0.1752066910
1381.10073	0.1720930785
1379.67102	0.1690950096
1378.24131	0.1663018763
1376.81160	0.1638149619
1375.38189	0.1617223173
1373.95218	0.1600617617
1372.52246	0.1587897092
1371.09275	0.1577829570
1369.66304	0.1568784863
1368.23333	0.1559316069
1366.80362	0.1548639834
1365.37391	0.1536911279
1363.94420	0.1525150836
1362.51449	0.1514789760
1361.08478	0.1506955177
1359.65507	0.1501995176
1358.22536	0.1499562860
1356.79565	0.1499002725
1355.36593	0.1499615908
1353.93622	0.1500754207
1352.50651	0.1501886845
1351.07680	0.1502648592
1349.64709	0.1502813548
1348.21738	0.1502206624
1346.78767	0.1500705928
1345.35796	0.1498391181
1343.92825	0.1495674103
1342.49854	0.1493264586
1341.06883	0.1491902322
1339.63911	0.1491993219
1338.20940	0.1493389457
1336.77969	0.1495565623
1335.34998	0.1498065144
1333.92027	0.1500830203
1332.49056	0.1504169405
1331.06085	0.1508489996
1329.63114	0.1514017880
1328.20143	0.1520703435
1326.77172	0.1528312266
1325.34201	0.1536617726
1323.91229	0.1545493901
1322.48258	0.1554866880
1321.05287	0.1564602405
1319.62316	0.1574449688
1318.19345	0.1584079117
1316.76374	0.1593175977
1315.33403	0.1601523310
1313.90432	0.1609047651
1312.47461	0.1615811288
1311.04490	0.1621977836
1309.61519	0.1627749652
1308.18547	0.1633316278
1306.75576	0.1638823450
1305.32605	0.1644354314
1303.89634	0.1649898291
1302.46663	0.1655329615
1301.03692	0.1660423577
1299.60721	0.1664929539
1298.17750	0.1668645591
1296.74779	0.1671444327
1295.31808	0.1673292518
1293.88837	0.1674270630
1292.45865	0.1674608588
1291.02894	0.1674645841
1289.59923	0.1674699187
1288.16952	0.1674927175
1286.73981	0.1675303280
1285.31010	0.1675725579
1283.88039	0.1676152349
1282.45068	0.1676641703
1281.02097	0.1677317023
1279.59126	0.1678344309
1278.16155	0.1679972559
1276.73183	0.1682591736
1275.30212	0.1686718315
1273.87241	0.1692897975
1272.44270	0.1701555550
1271.01299	0.1712895930
1269.58328	0.1726912111
1268.15357	0.1743516624
1266.72386	0.1762727350
1265.29415	0.1784769893
1263.86444	0.1809983850
1262.43473	0.1838573366
1261.00501	0.1870330572
1259.57530	0.1904549003
1258.14559	0.1940148771
1256.71588	0.1975885928
1255.28617	0.2010479569
1253.85646	0.2042643875
1252.42675	0.2071141601
1250.99704	0.2094915360
1249.56733	0.2113244385
1248.13762	0.2125816941
1246.70791	0.2132707536
1245.27819	0.2134274095
1243.84848	0.2131065726
1242.41877	0.2123710364
1240.98906	0.2112825811
1239.55935	0.2098970562
1238.12964	0.2082649320
1236.69993	0.2064335048
1235.27022	0.2044453919
1233.84051	0.2023365647
1232.41080	0.2001349777
1230.98109	0.1978652626
1229.55137	0.1955514550
1228.12166	0.1932157725
1226.69195	0.1908699423
1225.26224	0.1885054559
1223.83253	0.1860920638
1222.40282	0.1835858524
1220.97311	0.1809465438
1219.54340	0.1781533360
1218.11369	0.1752147526
1216.68398	0.1721679568
1215.25427	0.1690695286
1213.82455	0.1659846604
1212.39484	0.1629756838
1210.96513	0.1600921899
1209.53542	0.1573653668
1208.10571	0.1548077464
1206.67600	0.1524228901
1205.24629	0.1502178460
1203.81658	0.1482119411
1202.38687	0.1464373320
1200.95716	0.1449314952
1199.52745	0.1437298208
1198.09774	0.1428617090
1196.66802	0.1423471868
1195.23831	0.1421915144
1193.80860	0.1423761547
1192.37889	0.1428509206
1190.94918	0.1435348094
1189.51947	0.1443305016
1188.08976	0.1451506317
1186.66005	0.1459474415
1185.23034	0.1467304677
1183.80063	0.1475633383
1182.37092	0.1485372186
1180.94120	0.1497347057
1179.51149	0.1511997879
1178.08178	0.1529219896
1176.65207	0.1548389196
1175.22236	0.1568535268
1173.79265	0.1588625461
1172.36294	0.1607912481
1170.93323	0.1626200080
1169.50352	0.1643891633
1168.07381	0.1661752909
1166.64410	0.1680564135
1165.21438	0.1700844765
1163.78467	0.1722777635
1162.35496	0.1746268719
1160.92525	0.1771011502
1159.49554	0.1796523631
1158.06583	0.1822191179
1156.63612	0.1847350299
1155.20641	0.1871400326
1153.77670	0.1893882304
1152.34699	0.1914545596
1150.91728	0.1933399886
1149.48756	0.1950784177
1148.05785	0.1967364699
1146.62814	0.1984049380
1145.19843	0.2001830488
1143.76872	0.2021596879
1142.33901	0.2043985277
1140.90930	0.2069320828
1139.47959	0.2097644359
1138.04988	0.2128821015
1136.62017	0.2162644267
1135.19046	0.2198855430
1133.76074	0.2237102538
1132.33103	0.2276889980
1130.90132	0.2317613065
1129.47161	0.2358647883
1128.04190	0.2399432361
1126.61219	0.2439489365
1125.18248	0.2478430271
1123.75277	0.2515980601
1122.32306	0.2552009225
1120.89335	0.2586544156
1119.46364	0.2619741261
1118.03392	0.2651861310
1116.60421	0.2683255374
1115.17450	0.2714310288
1113.74479	0.2745351791
1112.31508	0.2776518166
1110.88537	0.2807727158
1109.45566	0.2838669717
1108.02595	0.2868830562
1106.59624	0.2897501290
1105.16653	0.2923847139
1103.73682	0.2947127223
1102.30710	0.2966948450
1100.87739	0.2983416319
1099.44768	0.2997105122
1098.01797	0.3008895516
1096.58826	0.3019752204
1095.15855	0.3030480146
1093.72884	0.3041459024
1092.29913	0.3052454293
1090.86942	0.3062609732
1089.43971	0.3070657253
1088.01000	0.3075259626
1086.58028	0.3075336218
1085.15057	0.3070256412
1083.72086	0.3059835136
1082.29115	0.3044178486
1080.86144	0.3023477495
1079.43173	0.2997930050
1078.00202	0.2967840433
1076.57231	0.2933833897
1075.14260	0.2896964550
1073.71289	0.2858612239
1072.28318	0.2820218801
1070.85346	0.2783031464
1069.42375	0.2747948170
1067.99404	0.2715441287
1066.56433	0.2685470581
1065.13462	0.2657402754
1063.70491	0.2630041838
1062.27520	0.2601851225
1060.84549	0.2571325302
1059.41578	0.2537363768
1057.98607	0.2499500513
1056.55636	0.2457931787
1055.12664	0.2413379252
1053.69693	0.2366880774
1052.26722	0.2319583893
1050.83751	0.2272576690
1049.40780	0.2226745933
1047.97809	0.2182664275
1046.54838	0.2140552700
1045.11867	0.2100341618
1043.68896	0.2061849087
1042.25925	0.2024994045
1040.82954	0.1989908814
1039.39983	0.1956908405
1037.97011	0.1926320791
1036.54040	0.1898274124
1035.11069	0.1872522086
1033.68098	0.1848367900
1032.25127	0.1824734360
1030.82156	0.1800387055
1029.39185	0.1774289012
1027.96214	0.1745891869
1026.53243	0.1715229750
1025.10272	0.1682773530
1023.67301	0.1649212241
1022.24329	0.1615325361
1020.81358	0.1582005322
1019.38387	0.1550302356
1017.95416	0.1521317810
1016.52445	0.1495962292
1015.09474	0.1474719793
1013.66503	0.1457625926
1012.23532	0.1444476992
1010.80561	0.1435112208
1009.37590	0.1429559588
1007.94619	0.1427969784
1006.51647	0.1430422366
1005.08676	0.1436770260
1003.65705	0.1446618587
1002.22734	0.1459374428
1000.79763	0.1474274099
999.36792	0.1490356624
997.93821	0.1506452411
996.50850	0.1521280706
995.07879	0.1533636600
993.64908	0.1542579979
992.21937	0.1547544003
990.78965	0.1548337489
989.35994	0.1545092762
987.93023	0.1538182199
986.50052	0.1528143287
985.07081	0.1515593380
983.64110	0.1501204371
982.21139	0.1485673934
980.78168	0.1469668895
979.35197	0.1453716606
977.92226	0.1438100189
976.49255	0.1422846466
975.06283	0.1407817006
973.63312	0.1392802894
972.20341	0.1377573460
970.77370	0.1361877620
969.34399	0.1345483512
967.91428	0.1328277588
966.48457	0.1310357451
965.05486	0.1292041838
963.62515	0.1273813546
962.19544	0.1256234646
960.76573	0.1239871755
959.33601	0.1225210652
957.90630	0.1212532073
956.47659	0.1201855689
955.04688	0.1193006635
953.61717	0.1185792312
952.18746	0.1180121303
950.75775	0.1175993383
949.32804	0.1173371226
947.89833	0.1172090769
946.46862	0.1171890050
945.03891	0.1172530875
943.60919	0.1173859984
942.17948	0.1175752133
940.74977	0.1177968234
939.32006	0.1180064231
937.89035	0.1181470454
936.46064	0.1181709990
935.03093	0.1180631891
933.60122	0.1178467050
932.17151	0.1175679490
930.74180	0.1172728911
929.31209	0.1169942394
927.88237	0.1167555898
926.45266	0.1165821031
925.02295	0.1164982170
923.59324	0.1165111810
922.16353	0.1165905371
920.73382	0.1166655049
919.30411	0.1166417673
917.87440	0.1164304167
916.44469	0.1159712523
915.01498	0.1152421236
913.58527	0.1142597198
912.15555	0.1130737439
910.72584	0.1117634103
909.29613	0.1104298458
907.86642	0.1091833040
906.43671	0.1081268638
905.00700	0.1073373854
903.57729	0.1068542898
902.14758	0.1066794172
900.71787	0.1067898646
899.28816	0.1071542054
897.85845	0.1077441871
896.42873	0.1085362583
894.99902	0.1095064878
893.56931	0.1106244698
892.13960	0.1118536219
890.70989	0.1131550297
889.28018	0.1144917458
887.85047	0.1158287004
886.42076	0.1171292365
884.99105	0.1183559969
883.56134	0.1194798723
882.13163	0.1204925179
880.70192	0.1214105263
879.27220	0.1222662628
877.84249	0.1230911687
876.41278	0.1239059418
874.98307	0.1247239038
873.55336	0.1255566776
872.12365	0.1264129430
870.69394	0.1272888631
869.26423	0.1281586438
867.83452	0.1289754957
866.40481	0.1296800822
864.97510	0.1302117705
863.54538	0.1305205822
862.11567	0.1305809915
860.68596	0.1304013431
859.25625	0.1300208420
857.82654	0.1294894665
856.39683	0.1288452893
854.96712	0.1281073242
853.53741	0.1272893548
852.10770	0.1264198273
850.67799	0.1255491078
849.24828	0.1247356683
847.81856	0.1240259930
846.38885	0.1234431416
844.95914	0.1229905859
843.52943	0.1226661727
842.09972	0.1224738434
840.67001	0.1224244907
839.24030	0.1225258410
837.81059	0.1227656901
836.38088	0.1231022701
834.95117	0.1234674230
833.52146	0.1237833798
832.09174	0.1239789799
830.66203	0.1240005717
829.23232	0.1238170117
827.80261	0.1234272793
826.37290	0.1228703409
824.94319	0.1222262681
823.51348	0.1216012910
822.08377	0.1210979670
820.65406	0.1207860783
819.22435	0.1206848621
817.79464	0.1207632720
816.36492	0.1209552959
814.93521	0.1211860701
813.50550	0.1214009747
812.07579	0.1215850934
810.64608	0.1217603832
809.21637	0.1219617575
807.78666	0.1222076714
806.35695	0.1224884987
804.92724	0.1227775365
803.49753	0.1230527163
802.06782	0.1233084649
800.63810	0.1235471964
799.20839	0.1237623841
797.77868	0.1239365563
796.34897	0.1240600571
794.91926	0.1241567507
793.48955	0.1242891774
792.05984	0.1245323792
790.63013	0.1249341816
789.20042	0.1254979521
787.77071	0.1261982322
786.34100	0.1270052046
784.91128	0.1278879195
783.48157	0.1287869215
782.05186	0.1295929700
780.62215	0.1301696301
779.19244	0.1304208040
777.76273	0.1303554475
776.33302	0.1301008314
774.90331	0.1298493445
773.47360	0.1297757328
772.04389	0.1299744397
770.61418	0.1304426193
769.18446	0.1311027557
767.75475	0.1318458021
766.32504	0.1325757951
764.89533	0.1332419962
763.46562	0.1338464767
762.03591	0.1344227493
760.60620	0.1350004375
759.17649	0.1355797797
757.74678	0.1361349672
756.31707	0.1366415918
754.88736	0.1371062696
753.45764	0.1375701129
752.02793	0.1380826980
750.59822	0.1386653930
749.16851	0.1392928064
747.73880	0.1399069130
746.30909	0.1404548138
744.87938	0.1409199238
743.44967	0.1413257271
742.01996	0.1417137384
740.59025	0.1421190798
739.16054	0.1425630599
737.73082	0.1430646181
736.30111	0.1436520219
734.87140	0.1443574131
733.44169	0.1452011466
732.01198	0.1461798549
730.58227	0.1472684443
729.15256	0.1484312117
727.72285	0.1496319175
726.29314	0.1508393586
724.86343	0.1520303041
723.43372	0.1531923562
722.00401	0.1543261707
720.57429	0.1554418802
719.14458	0.1565502137
717.71487	0.1576535106
716.28516	0.1587449759
714.85545	0.1598136574
713.42574	0.1608560979
711.99603	0.1618856490
710.56632	0.1629334539
709.13661	0.1640359163
707.70690	0.1652062386
706.27719	0.1664072871
704.84747	0.1675473899
703.41776	0.1685090214
701.98805	0.1691951305
700.55834	0.1695635468
699.12863	0.1696304530
697.69892	0.1694506109
696.26921	0.1690973043
694.83950	0.1686502248
693.40979	0.1681853831
691.98008	0.1677640676
690.55037	0.1674269885
689.12065	0.1671987027
687.69094	0.1671002656
686.26123	0.1671517640
684.83152	0.1673601121
683.40181	0.1677028686
681.97210	0.1681281179
680.54239	0.1685722470
679.11268	0.1689771116
677.68297	0.1692922562
676.25326	0.1694768369
674.82355	0.1695183069
673.39383	0.1694608629
671.96412	0.1694262922
670.53441	0.1695990860
669.10470	0.1701255739
667.67499	0.1709425747
666.24528	0.1717628092
664.81557	0.1723328382
663.38586	0.1726115942
661.95615	0.1726976037
660.52644	0.1727049649
659.09673	0.1727072746
657.66701	0.1727324426
656.23730	0.1727828383
654.80759	0.1728552580
653.37788	0.1729456782
651.94817	0.1730457991
650.51846	0.1731467545
649.08875	0.1732474715
647.65904	0.1733545959
646.22933	0.1734716147
644.79962	0.1735886037
643.36991	0.1736859083
641.94019	0.1737476140
640.51048	0.1737703681
639.08077	0.1737618595
637.65106	0.1737337112
636.22135	0.1736914963
634.79164	0.1736197174
633.36193	0.1734712571
631.93222	0.1731742918
630.50251	0.1726667583
629.07280	0.1719405651
627.64309	0.1710670590
626.21337	0.1701762080
624.78366	0.1693939865
623.35395	0.1687708944
621.92424	0.1682657301
620.49453	0.1678055525
619.06482	0.1673592031
617.63511	0.1669449657
616.20540	0.1665788442
614.77569	0.1662356406
613.34598	0.1658647209
611.91627	0.1654402018
610.48655	0.1650017947
609.05684	0.1646546572
607.62713	0.1645262390
606.19742	0.1647015661
604.76771	0.1651765406
603.33800	0.1658521295
601.90829	0.1665733308
600.47858	0.1671937257
599.04887	0.1676333994
