3997.47168	0.0142143192
3996.04197	0.0141704297
3994.61226	0.0141182542
3993.18255	0.0140703628
3991.75284	0.0140424222
3990.32312	0.0140472082
3988.89341	0.0140884649
3987.46370	0.0141562279
3986.03399	0.0142297791
3984.60428	0.0142879877
3983.17457	0.0143205719
3981.74486	0.0143328523
3980.31515	0.0143380696
3978.88544	0.0143459626
3977.45573	0.0143554341
3976.02602	0.0143596344
3974.59630	0.0143562369
3973.16659	0.0143501628
3971.73688	0.0143487183
3970.30717	0.0143528385
3968.87746	0.0143567715
3967.44775	0.0143537745
3966.01804	0.0143416543
3964.58833	0.0143224718
3963.15862	0.0142985005
3961.72891	0.0142733809
3960.29920	0.0142529169
3958.86948	0.0142464442
3957.43977	0.0142598990
3956.01006	0.0142868636
3954.58035	0.0143077839
3953.15064	0.0142997848
3951.72093	0.0142505895
3950.29122	0.0141697871
3948.86151	0.0140852565
3947.43180	0.0140276374
3946.00209	0.0140121309
3944.57238	0.0140343476
3943.14266	0.0140806306
3941.71295	0.0141404234
3940.28324	0.0142101739
3938.85353	0.0142873721
3937.42382	0.0143634342
3935.99411	0.0144244423
3934.56440	0.0144595001
3933.13469	0.0144664049
3931.70498	0.0144512840
3930.27527	0.0144220879
3928.84556	0.0143826455
3927.41585	0.0143362768
3925.98613	0.0142877996
3924.55642	0.0142418966
3923.12671	0.0141970143
3921.69700	0.0141468411
3920.26729	0.0140905241
3918.83758	0.0140442941
3917.40787	0.0140361125
3915.97816	0.0140866200
3914.54845	0.0141882151
3913.11874	0.0143060721
3911.68903	0.0143966936
3910.25931	0.0144265834
3908.82960	0.0143826986
3907.39989	0.0142722577
3905.97018	0.0141205266
3904.54047	0.0139674321
3903.11076	0.0138589134
3901.68105	0.0138279665
3900.25134	0.0138753504
3898.82163	0.0139701590
3897.39192	0.0140732508
3895.96221	0.0141563620
3894.53249	0.0142084882
3893.10278	0.0142335510
3891.67307	0.0142428325
3890.24336	0.0142440628
3888.81365	0.0142337652
3887.38394	0.0142010795
3885.95423	0.0141399950
3884.52452	0.0140597206
3883.09481	0.0139861181
3881.66510	0.0139478110
3880.23539	0.0139562581
3878.80567	0.0139974803
3877.37596	0.0140379034
3875.94625	0.0140421549
3874.51654	0.0139895137
3873.08683	0.0138867088
3871.65712	0.0137696601
3870.22741	0.0136840846
3868.79770	0.0136554744
3867.36799	0.0136793302
3865.93828	0.0137371970
3864.50857	0.0138172507
3863.07885	0.0139125017
3861.64914	0.0140064098
3860.21943	0.0140673416
3858.78972	0.0140569936
3857.36001	0.0139481593
3855.93030	0.0137536284
3854.50059	0.0135652479
3853.07088	0.0135329869
3851.64117	0.0137230903
3850.21146	0.0140431710
3848.78175	0.0143530527
3847.35203	0.0145623330
3845.92232	0.0146304918
3844.49261	0.0145503674
3843.06290	0.0143482629
3841.63319	0.0140930377
3840.20348	0.0138872173
3838.77377	0.0138223283
3837.34406	0.0139191039
3835.91435	0.0141148577
3834.48464	0.0143184857
3833.05493	0.0144732557
3831.62521	0.0145688644
3830.19550	0.0146155525
3828.76579	0.0146199698
3827.33608	0.0145811783
3825.90637	0.0145029370
3824.47666	0.0144067015
3823.04695	0.0143299624
3821.61724	0.0143095497
3820.18753	0.0143592600
3818.75782	0.0144656552
3817.32811	0.0146057270
3815.89839	0.0147617254
3814.46868	0.0149174305
3813.03897	0.0150482152
3811.60926	0.0151215959
3810.17955	0.0151083823
3808.74984	0.0149985598
3807.32013	0.0148153435
3805.89042	0.0146159539
3804.46071	0.0144684389
3803.03100	0.0144179668
3801.60129	0.0144703658
3800.17157	0.0146015510
3798.74186	0.0147779277
3797.31215	0.0149722742
3795.88244	0.0151681285
3794.45273	0.0153526738
3793.02302	0.0155116767
3791.59331	0.0156271830
3790.16360	0.0156823583
3788.73389	0.0156701207
3787.30418	0.0156032480
3785.87447	0.0155161833
3784.44475	0.0154524995
3783.01504	0.0154440776
3781.58533	0.0155004365
3780.15562	0.0156083461
3778.72591	0.0157403052
3777.29620	0.0158609729
3775.86649	0.0159374997
3774.43678	0.0159473289
3773.00707	0.0158864800
3771.57736	0.0157749057
3770.14765	0.0156554133
3768.71794	0.0155755840
3767.28822	0.0155614708
3765.85851	0.0156017179
3764.42880	0.0156621765
3762.99909	0.0157089289
3761.56938	0.0157252196
3760.13967	0.0157144573
3758.70996	0.0156893097
3757.28025	0.0156541262
3755.85054	0.0155958952
3754.42083	0.0154976733
3752.99112	0.0153619256
3751.56140	0.0152263287
3750.13169	0.0151455319
3748.70198	0.0151523408
3747.27227	0.0152494656
3745.84256	0.0154354945
3744.41285	0.0157078821
3742.98314	0.0160339139
3741.55343	0.0163454898
3740.12372	0.0165713299
3738.69401	0.0166704953
3737.26430	0.0166477114
3735.83458	0.0165597387
3734.40487	0.0164943971
3732.97516	0.0165098030
3731.54545	0.0165934358
3730.11574	0.0166972335
3728.68603	0.0167867411
3727.25632	0.0168567020
3725.82661	0.0169236884
3724.39690	0.0170118418
3722.96719	0.0171348564
3721.53748	0.0172865409
3720.10776	0.0174434781
3718.67805	0.0175748896
3717.24834	0.0176499132
3715.81863	0.0176457074
3714.38892	0.0175634343
3712.95921	0.0174529627
3711.52950	0.0174120311
3710.09979	0.0175221432
3708.67008	0.0177713558
3707.24037	0.0180759486
3705.81066	0.0183619875
3704.38094	0.0186070371
3702.95123	0.0188252442
3701.52152	0.0190382320
3700.09181	0.0192537345
3698.66210	0.0194637924
3697.23239	0.0196556449
3695.80268	0.0198220294
3694.37297	0.0199639201
3692.94326	0.0200942270
3691.51355	0.0202398431
3690.08384	0.0204300564
3688.65412	0.0206707641
3687.22441	0.0209333617
3685.79470	0.0211805180
3684.36499	0.0213904232
3682.93528	0.0215569306
3681.50557	0.0216830634
3680.07586	0.0217828862
3678.64615	0.0218908433
3677.21644	0.0220581144
3675.78673	0.0223266482
3674.35702	0.0227001291
3672.92730	0.0231571440
3671.49759	0.0236876234
3670.06788	0.0242949296
3668.63817	0.0249662809
3667.20846	0.0256626997
3665.77875	0.0263420567
3664.34904	0.0269804411
3662.91933	0.0275698658
3661.48962	0.0281088594
3660.05991	0.0286016855
3658.63020	0.0290663112
3657.20048	0.0295299962
3655.77077	0.0300120935
3654.34106	0.0305113886
3652.91135	0.0310257990
3651.48164	0.0315852202
3650.05193	0.0322577693
3648.62222	0.0330899470
3647.19251	0.0340354964
3645.76280	0.0349945612
3644.33309	0.0359096006
3642.90338	0.0367841423
3641.47366	0.0376439914
3640.04395	0.0385058261
3638.61424	0.0393660031
3637.18453	0.0402001180
3635.75482	0.0409723632
3634.32511	0.0416591913
3632.89540	0.0422808751
3631.46569	0.0429229699
3630.03598	0.0437074043
3628.60627	0.0446899533
3627.17656	0.0457837060
3625.74684	0.0468394458
3624.31713	0.0477786288
3622.88742	0.0486152880
3621.45771	0.0494051240
3620.02800	0.0502023846
3618.59829	0.0510381162
3617.16858	0.0519134961
3615.73887	0.0528108738
3614.30916	0.0537126847
3612.87945	0.0546161123
3611.44974	0.0555339195
3610.02003	0.0564783216
3608.59031	0.0574402027
3607.16060	0.0583887324
3605.73089	0.0592943504
3604.30118	0.0601494722
3602.87147	0.0609651133
3601.44176	0.0617580563
3600.01205	0.0625453666
3598.58234	0.0633462593
3597.15263	0.0641750768
3595.72292	0.0650250167
3594.29321	0.0658656657
3592.86349	0.0666701496
3591.43378	0.0674487054
3590.00407	0.0682503432
3588.57436	0.0691261813
3587.14465	0.0700766370
3585.71494	0.0710400045
3584.28523	0.0719428137
3582.85552	0.0727533847
3581.42581	0.0734858438
3579.99610	0.0741790310
3578.56639	0.0748757571
3577.13667	0.0756073967
3575.70696	0.0763798729
3574.27725	0.0771705434
3572.84754	0.0779464841
3571.41783	0.0786900520
3569.98812	0.0794145092
3568.55841	0.0801564902
3567.12870	0.0809508935
3565.69899	0.0818014964
3564.26928	0.0826784745
3562.83957	0.0835408196
3561.40985	0.0843596086
3559.98014	0.0851281658
3558.55043	0.0858644918
3557.12072	0.0866033062
3555.69101	0.0873767361
3554.26130	0.0881944597
3552.83159	0.0890405402
3551.40188	0.0898908153
3549.97217	0.0907319188
3548.54246	0.0915617719
3547.11275	0.0923794433
3545.68303	0.0931784138
3544.25332	0.0939533040
3542.82361	0.0947080106
3541.39390	0.0954533890
3539.96419	0.0961985663
3538.53448	0.0969450474
3537.10477	0.0976877362
3535.67506	0.0984169841
3534.24535	0.0991255045
3532.81564	0.0998176858
3531.38593	0.1005115584
3529.95621	0.1012302116
3528.52650	0.1019827500
3527.09679	0.1027545705
3525.66708	0.1035170853
3524.23737	0.1042510644
3522.80766	0.1049571410
3521.37795	0.1056495160
3519.94824	0.1063397825
3518.51853	0.1070311815
3517.08882	0.1077207997
3515.65911	0.1084031761
3514.22939	0.1090740412
3512.79968	0.1097330526
3511.36997	0.1103863567
3509.94026	0.1110423133
3508.51055	0.1117037833
3507.08084	0.1123671681
3505.65113	0.1130295172
3504.22142	0.1136943921
3502.79171	0.1143672243
3501.36200	0.1150454879
3499.93229	0.1157173142
3498.50257	0.1163720414
3497.07286	0.1170077249
3495.64315	0.1176258773
3494.21344	0.1182253733
3492.78373	0.1188036054
3491.35402	0.1193664968
3489.92431	0.1199288815
3488.49460	0.1205014363
3487.06489	0.1210796982
3485.63518	0.1216502041
3484.20547	0.1222069189
3482.77575	0.1227580607
3481.34604	0.1233158559
3479.91633	0.1238834932
3478.48662	0.1244554222
3477.05691	0.1250268668
3475.62720	0.1255970895
3474.19749	0.1261639744
3472.76778	0.1267196089
3471.33807	0.1272545457
3469.90836	0.1277638227
3468.47865	0.1282457560
3467.04893	0.1286990792
3465.61922	0.1291243136
3464.18951	0.1295298189
3462.75980	0.1299325824
3461.33009	0.1303474158
3459.90038	0.1307780743
3458.47067	0.1312164664
3457.04096	0.1316524148
3455.61125	0.1320770979
3454.18154	0.1324836314
3452.75183	0.1328678280
3451.32212	0.1332337558
3449.89240	0.1335951835
3448.46269	0.1339671165
3447.03298	0.1343532354
3445.60327	0.1347448826
3444.17356	0.1351329237
3442.74385	0.1355180591
3441.31414	0.1359082460
3439.88443	0.1363077909
3438.45472	0.1367116272
3437.02501	0.1371086091
3435.59530	0.1374872625
3434.16558	0.1378366947
3432.73587	0.1381489486
3431.30616	0.1384228319
3429.87645	0.1386666298
3428.44674	0.1388938576
3427.01703	0.1391152889
3425.58732	0.1393367946
3424.15761	0.1395638734
3422.72790	0.1398054659
3421.29819	0.1400702000
3419.86848	0.1403603256
3418.43876	0.1406698376
3417.00905	0.1409868896
3415.57934	0.1412960440
3414.14963	0.1415783316
3412.71992	0.1418171376
3411.29021	0.1420105845
3409.86050	0.1421792656
3408.43079	0.1423562169
3407.00108	0.1425641775
3405.57137	0.1427985132
3404.14166	0.1430315822
3402.71194	0.1432337463
3401.28223	0.1433919221
3399.85252	0.1435151845
3398.42281	0.1436258554
3396.99310	0.1437461525
3395.56339	0.1438869834
3394.13368	0.1440416873
3392.70397	0.1441894770
3391.27426	0.1443081200
3389.84455	0.1443869025
3388.41484	0.1444328278
3386.98512	0.1444686353
3385.55541	0.1445250362
3384.12570	0.1446281672
3382.69599	0.1447865963
3381.26628	0.1449822783
3379.83657	0.1451772451
3378.40686	0.1453377306
3376.97715	0.1454580277
3375.54744	0.1455647051
3374.11773	0.1456936896
3372.68802	0.1458600312
3371.25830	0.1460458040
3369.82859	0.1462148726
3368.39888	0.1463400871
3366.96917	0.1464194208
3365.53946	0.1464724839
3364.10975	0.1465230733
3362.68004	0.1465827227
3361.25033	0.1466458142
3359.82062	0.1467004269
3358.39091	0.1467436850
3356.96120	0.1467898041
3355.53148	0.1468600780
3354.10177	0.1469650418
3352.67206	0.1470949352
3351.24235	0.1472273916
3349.81264	0.1473460346
3348.38293	0.1474505216
3346.95322	0.1475509405
3345.52351	0.1476558149
3344.09380	0.1477663070
3342.66409	0.1478785574
3341.23438	0.1479872465
3339.80466	0.1480849534
3338.37495	0.1481635123
3336.94524	0.1482192278
3335.51553	0.1482625604
3334.08582	0.1483171582
3332.65611	0.1484090984
3331.22640	0.1485500038
3329.79669	0.1487299204
3328.36698	0.1489204168
3326.93727	0.1490881294
3325.50756	0.1492102295
3324.07784	0.1492861211
3322.64813	0.1493386179
3321.21842	0.1494028121
3319.78871	0.1495074332
3318.35900	0.1496634930
3316.92929	0.1498650014
3315.49958	0.1501034647
3314.06987	0.1503770202
3312.64016	0.1506882012
3311.21045	0.1510306448
3309.78074	0.1513771415
3308.35102	0.1516828835
3306.92131	0.1519044191
3305.49160	0.1520218551
3304.06189	0.1520529985
3302.63218	0.1520478278
3301.20247	0.1520649493
3299.77276	0.1521433890
3298.34305	0.1522837132
3296.91334	0.1524497718
3295.48363	0.1525879055
3294.05392	0.1526500732
3292.62421	0.1526108682
3291.19449	0.1524723470
3289.76478	0.1522595882
3288.33507	0.1520077139
3286.90536	0.1517484784
3285.47565	0.1514978707
3284.04594	0.1512549818
3282.61623	0.1510092765
3281.18652	0.1507521123
3279.75681	0.1504845172
3278.32710	0.1502150297
3276.89739	0.1499494463
3275.46767	0.1496769786
3274.03796	0.1493658125
3272.60825	0.1489720345
3271.17854	0.1484611332
3269.74883	0.1478267461
3268.31912	0.1470952630
3266.88941	0.1463134736
3265.45970	0.1455291659
3264.02999	0.1447782516
3262.60028	0.1440818310
3261.17057	0.1434459835
3259.74085	0.1428595483
3258.31114	0.1422940195
3256.88143	0.1417153478
3255.45172	0.1411062479
3254.02201	0.1404809952
3252.59230	0.1398758292
3251.16259	0.1393192112
3249.73288	0.1388084441
3248.30317	0.1383130848
3246.87346	0.1378029585
3245.44375	0.1372724921
3244.01403	0.1367424130
3242.58432	0.1362396926
3241.15461	0.1357776225
3239.72490	0.1353519410
3238.29519	0.1349496096
3236.86548	0.1345571429
3235.43577	0.1341613680
3234.00606	0.1337476969
3232.57635	0.1333043724
3231.14664	0.1328307092
3229.71693	0.1323421896
3228.28721	0.1318640709
3226.85750	0.1314182132
3225.42779	0.1310132742
3223.99808	0.1306439042
3222.56837	0.1302976161
3221.13866	0.1299627423
3219.70895	0.1296293139
3218.27924	0.1292880177
3216.84953	0.1289298236
3215.41982	0.1285489500
3213.99011	0.1281472743
3212.56039	0.1277344972
3211.13068	0.1273248196
3209.70097	0.1269286722
3208.27126	0.1265483648
3206.84155	0.1261766404
3205.41184	0.1258014590
3203.98213	0.1254137754
3202.55242	0.1250123978
3201.12271	0.1246049702
3199.69300	0.1242028549
3198.26329	0.1238129809
3196.83357	0.1234323382
3195.40386	0.1230501384
3193.97415	0.1226552203
3192.54444	0.1222421825
3191.11473	0.1218126044
3189.68502	0.1213712618
3188.25531	0.1209216788
3186.82560	0.1204655617
3185.39589	0.1200042292
3183.96618	0.1195391193
3182.53647	0.1190722585
3181.10675	0.1186039597
3179.67704	0.1181342676
3178.24733	0.1176640242
3176.81762	0.1171965301
3175.38791	0.1167365536
3173.95820	0.1162863970
3172.52849	0.1158415452
3171.09878	0.1153908297
3169.66907	0.1149223000
3168.23936	0.1144325808
3166.80965	0.1139323711
3165.37993	0.1134409457
3163.95022	0.1129744500
3162.52051	0.1125372648
3161.09080	0.1121253520
3159.66109	0.1117333770
3158.23138	0.1113586202
3156.80167	0.1109934449
3155.37196	0.1106190905
3153.94225	0.1102078930
3152.51254	0.1097386181
3151.08283	0.1092116982
3149.65311	0.1086522713
3148.22340	0.1081002653
3146.79369	0.1075945273
3145.36398	0.1071563959
3143.93427	0.1067831516
3142.50456	0.1064477637
3141.07485	0.1061120033
3139.64514	0.1057450324
3138.21543	0.1053373665
3136.78572	0.1049015671
3135.35601	0.1044586077
3133.92629	0.1040210277
3132.49658	0.1035892740
3131.06687	0.1031597555
3129.63716	0.1027362049
3128.20745	0.1023322344
3126.77774	0.1019638330
3125.34803	0.1016398594
3123.91832	0.1013570949
3122.48861	0.1011009738
3121.05890	0.1008497402
3119.62919	0.1005782858
3118.19948	0.1002657562
3116.76976	0.0999029428
3115.34005	0.0995006189
3113.91034	0.0990869626
3112.48063	0.0986940712
3111.05092	0.0983399376
3109.62121	0.0980194733
3108.19150	0.0977109745
3106.76179	0.0973934680
3105.33208	0.0970597491
3103.90237	0.0967160016
3102.47266	0.0963707790
3101.04294	0.0960284472
3099.61323	0.0956930369
3098.18352	0.0953757390
3096.75381	0.0950943157
3095.32410	0.0948589295
3093.89439	0.0946594328
3092.46468	0.0944668502
3091.03497	0.0942511633
3089.60526	0.0939998701
3088.17555	0.0937230662
3086.74584	0.0934426114
3085.31612	0.0931762606
3083.88641	0.0929288343
3082.45670	0.0926900953
3081.02699	0.0924396142
3079.59728	0.0921534896
3078.16757	0.0918153003
3076.73786	0.0914278403
3075.30815	0.0910165310
3073.87844	0.0906198621
3072.44873	0.0902673453
3071.01902	0.0899614394
3069.58930	0.0896755457
3068.15959	0.0893701538
3066.72988	0.0890167356
3065.30017	0.0886125639
3063.87046	0.0881782845
3062.44075	0.0877454206
3061.01104	0.0873384699
3059.58133	0.0869661123
3058.15162	0.0866202414
3056.72191	0.0862808004
3055.29220	0.0859260783
3053.86248	0.0855417550
3052.43277	0.0851284191
3051.00306	0.0847009420
3049.57335	0.0842817128
3048.14364	0.0838890523
3046.71393	0.0835279822
3045.28422	0.0831875354
3043.85451	0.0828473195
3042.42480	0.0824886858
3040.99509	0.0821048915
3039.56538	0.0817032829
3038.13566	0.0812987015
3036.70595	0.0809007734
3035.27624	0.0805065334
3033.84653	0.0801039711
3032.41682	0.0796845555
3030.98711	0.0792533904
3029.55740	0.0788281187
3028.12769	0.0784271359
3026.69798	0.0780588463
3025.26827	0.0777198970
3023.83856	0.0774023756
3022.40884	0.0771010071
3020.97913	0.0768147409
3019.54942	0.0765423030
3018.11971	0.0762770176
3016.69000	0.0760063678
3015.26029	0.0757147819
3013.83058	0.0753891766
3012.40087	0.0750261545
3010.97116	0.0746348426
3009.54145	0.0742372274
3008.11174	0.0738605261
3006.68202	0.0735275075
3005.25231	0.0732480288
3003.82260	0.0730194077
3002.39289	0.0728325397
3000.96318	0.0726808533
2999.53347	0.0725634843
2998.10376	0.0724818036
2996.67405	0.0724316463
2995.24434	0.0723988563
2993.81463	0.0723638460
2992.38492	0.0723130852
2990.95520	0.0722507760
2989.52549	0.0722012222
2988.09578	0.0721976757
2986.66607	0.0722645298
2985.23636	0.0724030808
2983.80665	0.0725907385
2982.37694	0.0727942139
2980.94723	0.0729870722
2979.51752	0.0731621459
2978.08781	0.0733325481
2976.65810	0.0735181868
2975.22838	0.0737297088
2973.79867	0.0739577189
2972.36896	0.0741782635
2970.93925	0.0743690878
2969.50954	0.0745242238
2968.07983	0.0746535957
2966.65012	0.0747666731
2965.22041	0.0748551786
2963.79070	0.0748930126
2962.36099	0.0748505071
2960.93128	0.0747155771
2959.50157	0.0745002255
2958.07185	0.0742308944
2956.64214	0.0739328563
2955.21243	0.0736229345
2953.78272	0.0733119175
2952.35301	0.0730124563
2950.92330	0.0727396756
2949.49359	0.0725060031
2948.06388	0.0723147690
2946.63417	0.0721592829
2945.20446	0.0720292479
2943.77475	0.0719190538
2942.34503	0.0718314797
2940.91532	0.0717758983
2939.48561	0.0717615113
2938.05590	0.0717923865
2936.62619	0.0718633682
2935.19648	0.0719580650
2933.76677	0.0720476732
2932.33706	0.0720959902
2930.90735	0.0720712692
2929.47764	0.0719613954
2928.04793	0.0717804134
2926.61821	0.0715612993
2925.18850	0.0713346899
2923.75879	0.0711117461
2922.32908	0.0708791912
2920.89937	0.0706099942
2919.46966	0.0702780262
2918.03995	0.0698667094
2916.61024	0.0693693087
2915.18053	0.0687889755
2913.75082	0.0681406409
2912.32111	0.0674532354
2910.89139	0.0667661652
2909.46168	0.0661168918
2908.03197	0.0655284822
2906.60226	0.0650034621
2905.17255	0.0645313933
2903.74284	0.0641025826
2902.31313	0.0637160763
2900.88342	0.0633774102
2899.45371	0.0630869642
2898.02400	0.0628317073
2896.59429	0.0625881180
2895.16457	0.0623340830
2893.73486	0.0620602481
2892.30515	0.0617736019
2890.87544	0.0614911765
2889.44573	0.0612319373
2888.01602	0.0610116422
2886.58631	0.0608413629
2885.15660	0.0607261360
2883.72689	0.0606641881
2882.29718	0.0606483817
2880.86747	0.0606686212
2879.43775	0.0607129484
2878.00804	0.0607663579
2876.57833	0.0608056597
2875.14862	0.0607990213
2873.71891	0.0607132763
2872.28920	0.0605272241
2870.85949	0.0602419451
2869.42978	0.0598832779
2868.00007	0.0594927892
2866.57036	0.0591137670
2865.14065	0.0587779060
2863.71093	0.0584966466
2862.28122	0.0582637601
2860.85151	0.0580623038
2859.42180	0.0578752533
2857.99209	0.0576911233
2856.56238	0.0575036705
2855.13267	0.0573047213
2853.70296	0.0570774339
2852.27325	0.0567956232
2850.84354	0.0564321578
2849.41383	0.0559728108
2847.98411	0.0554282106
2846.55440	0.0548369437
2845.12469	0.0542539358
2843.69498	0.0537292659
2842.26527	0.0532903261
2840.83556	0.0529343411
2839.40585	0.0526375249
2837.97614	0.0523711666
2836.54643	0.0521143973
2835.11672	0.0518571362
2833.68701	0.0515967086
2832.25729	0.0513354130
2830.82758	0.0510803610
2829.39787	0.0508439392
2827.96816	0.0506370515
2826.53845	0.0504624769
2825.10874	0.0503102355
2823.67903	0.0501636826
2822.24932	0.0500097461
2820.81961	0.0498474129
2819.38990	0.0496863015
2817.96019	0.0495383367
2816.53047	0.0494097099
2815.10076	0.0492967181
2813.67105	0.0491893254
2812.24134	0.0490765087
2810.81163	0.0489515811
2809.38192	0.0488150455
2807.95221	0.0486741550
2806.52250	0.0485401638
2805.09279	0.0484214686
2803.66308	0.0483187176
2802.23337	0.0482237153
2800.80366	0.0481233262
2799.37394	0.0480081849
2797.94423	0.0478795767
2796.51452	0.0477482602
2795.08481	0.0476261675
2793.65510	0.0475155488
2792.22539	0.0474060848
2790.79568	0.0472811162
2789.36597	0.0471309945
2787.93626	0.0469600447
2786.50655	0.0467832796
2785.07684	0.0466164723
2783.64712	0.0464682803
2782.21741	0.0463394634
2780.78770	0.0462283641
2779.35799	0.0461320020
2777.92828	0.0460447297
2776.49857	0.0459554009
2775.06886	0.0458505861
2773.63915	0.0457227305
2772.20944	0.0455761962
2770.77973	0.0454252809
2769.35002	0.0452861153
2767.92030	0.0451671854
2766.49059	0.0450660363
2765.06088	0.0449723713
2763.63117	0.0448754579
2762.20146	0.0447699539
2760.77175	0.0446570739
2759.34204	0.0445432216
2757.91233	0.0444362238
2756.48262	0.0443423800
2755.05291	0.0442648977
2753.62320	0.0442020409
2752.19348	0.0441463329
2750.76377	0.0440845527
2749.33406	0.0440020151
2747.90435	0.0438893959
2746.47464	0.0437488295
2745.04493	0.0435935147
2743.61522	0.0434412584
2742.18551	0.0433040969
2740.75580	0.0431839935
2739.32609	0.0430751592
2737.89638	0.0429708064
2736.46666	0.0428683646
2735.03695	0.0427689180
2733.60724	0.0426745228
2732.17753	0.0425849445
2730.74782	0.0424985513
2729.31811	0.0424137153
2727.88840	0.0423279293
2726.45869	0.0422362536
2725.02898	0.0421295054
2723.59927	0.0419989191
2722.16956	0.0418420322
2720.73984	0.0416680798
2719.31013	0.0414948799
2717.88042	0.0413406827
2716.45071	0.0412139744
2715.02100	0.0411106087
2713.59129	0.0410167724
2712.16158	0.0409188308
2710.73187	0.0408088528
2709.30216	0.0406889245
2707.87245	0.0405685194
2706.44274	0.0404590853
2705.01302	0.0403680578
2703.58331	0.0402946025
2702.15360	0.0402304158
2700.72389	0.0401657857
2699.29418	0.0400943793
2697.86447	0.0400159173
2696.43476	0.0399335250
2695.00505	0.0398497880
2693.57534	0.0397648476
2692.14563	0.0396784730
2690.71592	0.0395932533
2689.28620	0.0395161286
2687.85649	0.0394558012
2686.42678	0.0394179001
2684.99707	0.0394006968
2683.56736	0.0393938646
2682.13765	0.0393816493
2680.70794	0.0393498503
2679.27823	0.0392907076
2677.84852	0.0392051078
2676.41881	0.0391001515
2674.98910	0.0389853418
2673.55938	0.0388694517
2672.12967	0.0387603045
2670.69996	0.0386625305
2669.27025	0.0385760963
2667.84054	0.0384958982
2666.41083	0.0384139642
2664.98112	0.0383248068
2663.55141	0.0382299572
2662.12170	0.0381374173
2660.69199	0.0380570479
2659.26228	0.0379944071
2657.83256	0.0379471444
2656.40285	0.0379062109
2654.97314	0.0378606804
2653.54343	0.0378031507
2652.11372	0.0377325565
2650.68401	0.0376538150
2649.25430	0.0375750028
2647.82459	0.0375038236
2646.39488	0.0374452397
2644.96517	0.0374012813
2643.53546	0.0373702459
2642.10575	0.0373471417
2640.67603	0.0373255610
2639.24632	0.0373005122
2637.81661	0.0372713767
2636.38690	0.0372413360
2634.95719	0.0372150242
2633.52748	0.0371941254
2632.09777	0.0371768959
2630.66806	0.0371594690
2629.23835	0.0371381231
2627.80864	0.0371109433
2626.37893	0.0370773077
2624.94921	0.0370380096
2623.51950	0.0369948223
2622.08979	0.0369500071
2620.66008	0.0369051099
2619.23037	0.0368591473
2617.80066	0.0368102901
2616.37095	0.0367586724
2614.94124	0.0367087834
2613.51153	0.0366679952
2612.08182	0.0366430432
2610.65211	0.0366348736
2609.22239	0.0366392694
2607.79268	0.0366476625
2606.36297	0.0366514064
2604.93326	0.0366425626
2603.50355	0.0366171859
2602.07384	0.0365762971
2600.64413	0.0365277790
2599.21442	0.0364842787
2597.78471	0.0364585184
2596.35500	0.0364569388
2594.92529	0.0364767313
2593.49557	0.0365075618
2592.06586	0.0365372114
2590.63615	0.0365572609
2589.20644	0.0365654267
2587.77673	0.0365654826
2586.34702	0.0365637094
2584.91731	0.0365648344
2583.48760	0.0365694240
2582.05789	0.0365741849
2580.62818	0.0365755633
2579.19847	0.0365730859
2577.76875	0.0365716778
2576.33904	0.0365792252
2574.90933	0.0366006270
2573.47962	0.0366339460
2572.04991	0.0366711803
2570.62020	0.0367050357
2569.19049	0.0367346145
2567.76078	0.0367662534
2566.33107	0.0368084572
2564.90136	0.0368651226
2563.47165	0.0369325876
2562.04193	0.0370022096
2560.61222	0.0370659754
2559.18251	0.0371201932
2557.75280	0.0371658430
2556.32309	0.0372058600
2554.89338	0.0372422673
2553.46367	0.0372765921
2552.03396	0.0373099335
2550.60425	0.0373446308
2549.17454	0.0373832807
2547.74483	0.0374284796
2546.31511	0.0374811068
2544.88540	0.0375407115
2543.45569	0.0376046412
2542.02598	0.0376683809
2540.59627	0.0377273336
2539.16656	0.0377795994
2537.73685	0.0378297269
2536.30714	0.0378879085
2534.87743	0.0379640386
2533.44772	0.0380608365
2532.01801	0.0381691270
2530.58829	0.0382732078
2529.15858	0.0383593887
2527.72887	0.0384245962
2526.29916	0.0384765528
2524.86945	0.0385274105
2523.43974	0.0385855176
2522.01003	0.0386512429
2520.58032	0.0387193821
2519.15061	0.0387843624
2517.72090	0.0388440602
2516.29119	0.0389006250
2514.86147	0.0389567688
2513.43176	0.0390134305
2512.00205	0.0390708670
2510.57234	0.0391317345
2509.14263	0.0392022468
2507.71292	0.0392877311
2506.28321	0.0393860154
2504.85350	0.0394855961
2503.42379	0.0395710804
2501.99408	0.0396345146
2500.56437	0.0396808572
2499.13465	0.0397235453
2497.70494	0.0397747196
2496.27523	0.0398376733
2494.84552	0.0399088375
2493.41581	0.0399848968
2491.98610	0.0400669277
2490.55639	0.0401586294
2489.12668	0.0402604342
2487.69697	0.0403670073
2486.26726	0.0404702500
2484.83755	0.0405634306
2483.40784	0.0406436957
2481.97812	0.0407101624
2480.54841	0.0407629572
2479.11870	0.0408043303
2477.68899	0.0408415273
2476.25928	0.0408860371
2474.82957	0.0409475304
2473.39986	0.0410266705
2471.97015	0.0411131978
2470.54044	0.0411918014
2469.11073	0.0412531421
2467.68102	0.0412991159
2466.25130	0.0413407087
2464.82159	0.0413888581
2463.39188	0.0414482020
2461.96217	0.0415168963
2460.53246	0.0415910706
2459.10275	0.0416681357
2457.67304	0.0417474955
2456.24333	0.0418285243
2454.81362	0.0419088230
2453.38391	0.0419844911
2451.95420	0.0420512483
2450.52448	0.0421062596
2449.09477	0.0421503298
2447.66506	0.0421887226
2446.23535	0.0422299206
2444.80564	0.0422813892
2443.37593	0.0423452780
2441.94622	0.0424173139
2440.51651	0.0424902141
2439.08680	0.0425579622
2437.65709	0.0426176637
2436.22738	0.0426687822
2434.79766	0.0427119657
2433.36795	0.0427488089
2431.93824	0.0427827723
2430.50853	0.0428190231
2429.07882	0.0428623073
2427.64911	0.0429133661
2426.21940	0.0429687500
2424.78969	0.0430224799
2423.35998	0.0430690125
2421.93027	0.0431050286
2420.50056	0.0431303605
2419.07084	0.0431475975
2417.64113	0.0431620069
2416.21142	0.0431806780
2414.78171	0.0432095863
2413.35200	0.0432502180
2411.92229	0.0432971492
2410.49258	0.0433409661
2409.06287	0.0433744304
2407.63316	0.0433975756
2406.20345	0.0434172265
2404.77374	0.0434413143
2403.34402	0.0434724987
2401.91431	0.0435062908
2400.48460	0.0435366817
2399.05489	0.0435613468
2397.62518	0.0435834974
2396.19547	0.0436082818
2394.76576	0.0436368473
2393.33605	0.0436651558
2391.90634	0.0436869934
2390.47663	0.0436992198
2389.04692	0.0437028520
2387.61720	0.0437009931
2386.18749	0.0436938070
2384.75778	0.0436765179
2383.32807	0.0436405092
2381.89836	0.0435767733
2380.46865	0.0434808284
2379.03894	0.0433543809
2377.60923	0.0432069562
2376.17952	0.0430524051
2374.74981	0.0429029092
2373.32010	0.0427606925
2371.89038	0.0426153243
2370.46067	0.0424478240
2369.03096	0.0422430150
2367.60125	0.0420008302
2366.17154	0.0417383201
2364.74183	0.0414826907
2363.31212	0.0412626192
2361.88241	0.0411059409
2360.45270	0.0410364605
2359.02299	0.0410679281
2357.59328	0.0411993153
2356.16356	0.0414171889
2354.73385	0.0416962877
2353.30414	0.0420005471
2351.87443	0.0422889777
2350.44472	0.0425233878
2349.01501	0.0426733531
2347.58530	0.0427187607
2346.15559	0.0426559038
2344.72588	0.0425093696
2343.29617	0.0423368886
2341.86646	0.0422072113
2340.43674	0.0421571471
2339.00703	0.0421757177
2337.57732	0.0422301479
2336.14761	0.0422975980
2334.71790	0.0423749574
2333.28819	0.0424681492
2331.85848	0.0425783768
2330.42877	0.0426942296
2328.99906	0.0427955724
2327.56935	0.0428637378
2326.13964	0.0428924523
2324.70993	0.0428920239
2323.28021	0.0428875089
2321.85050	0.0429077111
2320.42079	0.0429714620
2318.99108	0.0430776142
2317.56137	0.0432070419
2316.13166	0.0433358736
2314.70195	0.0434487239
2313.27224	0.0435447507
2311.84253	0.0436337553
2310.41282	0.0437252410
2308.98311	0.0438198373
2307.55339	0.0439087562
2306.12368	0.0439807922
2304.69397	0.0440290309
2303.26426	0.0440552458
2301.83455	0.0440672189
2300.40484	0.0440745838
2298.97513	0.0440861881
2297.54542	0.0441082194
2296.11571	0.0441441238
2294.68600	0.0441935025
2293.25629	0.0442509949
2291.82657	0.0443076938
2290.39686	0.0443557985
2288.96715	0.0443914086
2287.53744	0.0444150046
2286.10773	0.0444289669
2284.67802	0.0444336124
2283.24831	0.0444285385
2281.81860	0.0444155782
2280.38889	0.0444016717
2278.95918	0.0443957932
2277.52947	0.0444035083
2276.09975	0.0444224589
2274.67004	0.0444446541
2273.24033	0.0444621444
2271.81062	0.0444718674
2270.38091	0.0444764271
2268.95120	0.0444811024
2267.52149	0.0444902778
2266.09178	0.0445049331
2264.66207	0.0445229150
2263.23236	0.0445398651
2261.80265	0.0445521139
2260.37293	0.0445581935
2258.94322	0.0445600860
2257.51351	0.0445616655
2256.08380	0.0445666835
2254.65409	0.0445766076
2253.22438	0.0445902646
2251.79467	0.0446044616
2250.36496	0.0446171425
2248.93525	0.0446295924
2247.50554	0.0446455702
2246.07583	0.0446683206
2244.64611	0.0446955487
2243.21640	0.0447186753
2241.78669	0.0447286330
2240.35698	0.0447224639
2238.92727	0.0447073132
2237.49756	0.0446967557
2236.06785	0.0447031260
2234.63814	0.0447306409
2233.20843	0.0447738580
2231.77872	0.0448194295
2230.34901	0.0448515750
2228.91929	0.0448600724
2227.48958	0.0448453203
2226.05987	0.0448193140
2224.63016	0.0447996296
2223.20045	0.0447984524
2221.77074	0.0448163040
2220.34103	0.0448430218
2218.91132	0.0448650643
2217.48161	0.0448735058
2216.05190	0.0448663570
2214.62219	0.0448488221
2213.19247	0.0448303930
2211.76276	0.0448219553
2210.33305	0.0448318869
2208.90334	0.0448618233
2207.47363	0.0449044481
2206.04392	0.0449459888
2204.61421	0.0449738950
2203.18450	0.0449835397
2201.75479	0.0449793190
2200.32508	0.0449710228
2198.89537	0.0449665710
2197.46565	0.0449682362
2196.03594	0.0449726880
2194.60623	0.0449754149
2193.17652	0.0449742936
2191.74681	0.0449711643
2190.31710	0.0449687243
2188.88739	0.0449684374
2187.45768	0.0449689254
2186.02797	0.0449681506
2184.59826	0.0449651368
2183.16855	0.0449613184
2181.73883	0.0449590795
2180.30912	0.0449595973
2178.87941	0.0449622944
2177.44970	0.0449650511
2176.01999	0.0449661687
2174.59028	0.0449653082
2173.16057	0.0449630395
2171.73086	0.0449605733
2170.30115	0.0449583903
2168.87144	0.0449576154
2167.44173	0.0449602269
2166.01202	0.0449682660
2164.58230	0.0449823923
2163.15259	0.0450006537
2161.72288	0.0450192578
2160.29317	0.0450361706
2158.86346	0.0450515039
2157.43375	0.0450658612
2156.00404	0.0450771749
2154.57433	0.0450809374
2153.14462	0.0450730696
2151.71491	0.0450537726
2150.28520	0.0450294241
2148.85548	0.0450095236
2147.42577	0.0450030640
2145.99606	0.0450148955
2144.56635	0.0450434648
2143.13664	0.0450810231
2141.70693	0.0451160893
2140.27722	0.0451384634
2138.84751	0.0451441780
2137.41780	0.0451371707
2135.98809	0.0451252796
2134.55838	0.0451145954
2133.12866	0.0451069586
2131.69895	0.0451018177
2130.26924	0.0450997762
2128.83953	0.0451035388
2127.40982	0.0451151431
2125.98011	0.0451327190
2124.55040	0.0451510735
2123.12069	0.0451649725
2121.69098	0.0451718085
2120.26127	0.0451713502
2118.83156	0.0451640263
2117.40184	0.0451504961
2115.97213	0.0451326892
2114.54242	0.0451158620
2113.11271	0.0451066718
2111.68300	0.0451086536
2110.25329	0.0451199114
2108.82358	0.0451337546
2107.39387	0.0451434888
2105.96416	0.0451473109
2104.53445	0.0451485738
2103.10474	0.0451528542
2101.67502	0.0451628491
2100.24531	0.0451769792
2098.81560	0.0451920331
2097.38589	0.0452067666
2095.95618	0.0452226549
2094.52647	0.0452416427
2093.09676	0.0452628732
2091.66705	0.0452819504
2090.23734	0.0452933274
2088.80763	0.0452941880
2087.37792	0.0452853702
2085.94820	0.0452705137
2084.51849	0.0452547409
2083.08878	0.0452443138
2081.65907	0.0452452041
2080.22936	0.0452617221
2078.79965	0.0452938713
2077.36994	0.0453369431
2075.94023	0.0453844741
2074.51052	0.0454308577
2073.08081	0.0454727635
2071.65110	0.0455080345
2070.22138	0.0455355160
2068.79167	0.0455548912
2067.36196	0.0455672815
2065.93225	0.0455737785
2064.50254	0.0455749854
2063.07283	0.0455715358
2061.64312	0.0455657579
2060.21341	0.0455619916
2058.78370	0.0455636866
2057.35399	0.0455703884
2055.92428	0.0455778316
2054.49456	0.0455816276
2053.06485	0.0455804206
2051.63514	0.0455763973
2050.20543	0.0455730036
2048.77572	0.0455724858
2047.34601	0.0455753617
2045.91630	0.0455826335
2044.48659	0.0455952846
2043.05688	0.0456142314
2041.62717	0.0456388444
2040.19746	0.0456661619
2038.76774	0.0456921607
2037.33803	0.0457127802
2035.90832	0.0457270145
2034.47861	0.0457369089
2033.04890	0.0457459986
2031.61919	0.0457577035
2030.18948	0.0457735509
2028.75977	0.0457933135
2027.33006	0.0458152592
2025.90035	0.0458360575
2024.47064	0.0458507873
2023.04092	0.0458550453
2021.61121	0.0458483994
2020.18150	0.0458364896
2018.75179	0.0458293259
2017.32208	0.0458361730
2015.89237	0.0458604842
2014.46266	0.0458991490
2013.03295	0.0459446982
2011.60324	0.0459891856
2010.17353	0.0460282974
2008.74382	0.0460612215
2007.31411	0.0460898615
2005.88439	0.0461165160
2004.45468	0.0461417921
2003.02497	0.0461656563
2001.59526	0.0461899266
2000.16555	0.0462190658
1998.73584	0.0462566987
1997.30613	0.0463019386
1995.87642	0.0463480763
1994.44671	0.0463871025
1993.01700	0.0464154184
1991.58729	0.0464373380
1990.15757	0.0464628339
1988.72786	0.0465009809
1987.29815	0.0465538800
1985.86844	0.0466157794
1984.43873	0.0466758125
1983.00902	0.0467252769
1981.57931	0.0467621759
1980.14960	0.0467915833
1978.71989	0.0468214825
1977.29018	0.0468578711
1975.86047	0.0469033718
1974.43075	0.0469577089
1973.00104	0.0470186844
1971.57133	0.0470808782
1970.14162	0.0471360721
1968.71191	0.0471775681
1967.28220	0.0472063683
1965.85249	0.0472330898
1964.42278	0.0472724289
1962.99307	0.0473344885
1961.56336	0.0474190749
1960.13365	0.0475169942
1958.70393	0.0476138629
1957.27422	0.0476970337
1955.84451	0.0477599055
1954.41480	0.0478043482
1952.98509	0.0478383340
1951.55538	0.0478704423
1950.12567	0.0479053296
1948.69596	0.0479433388
1947.26625	0.0479836091
1945.83654	0.0480266586
1944.40683	0.0480744839
1942.97711	0.0481294841
1941.54740	0.0481931716
1940.11769	0.0482668467
1938.68798	0.0483500548
1937.25827	0.0484386310
1935.82856	0.0485258959
1934.39885	0.0486062281
1932.96914	0.0486772209
1931.53943	0.0487404093
1930.10972	0.0487967692
1928.68001	0.0488461852
1927.25029	0.0488890298
1925.82058	0.0489288680
1924.39087	0.0489713140
1922.96116	0.0490205474
1921.53145	0.0490772054
1920.10174	0.0491414666
1918.67203	0.0492155030
1917.24232	0.0493032150
1915.81261	0.0494054742
1914.38290	0.0495178811
1912.95319	0.0496319160
1911.52347	0.0497391000
1910.09376	0.0498335920
1908.66405	0.0499145463
1907.23434	0.0499862470
1905.80463	0.0500556976
1904.37492	0.0501286127
1902.94521	0.0502070636
1901.51550	0.0502893664
1900.08579	0.0503728725
1898.65608	0.0504548587
1897.22637	0.0505324937
1895.79665	0.0506037772
1894.36694	0.0506690778
1892.93723	0.0507333390
1891.50752	0.0508059636
1890.07781	0.0508958884
1888.64810	0.0510063246
1887.21839	0.0511322208
1885.78868	0.0512620322
1884.35897	0.0513829924
1882.92926	0.0514868200
1881.49955	0.0515731238
1880.06983	0.0516487472
1878.64012	0.0517226011
1877.21041	0.0517986268
1875.78070	0.0518721901
1874.35099	0.0519328676
1872.92128	0.0519719608
1871.49157	0.0519914217
1870.06186	0.0520087853
1868.63215	0.0520529933
1867.20244	0.0521460362
1865.77273	0.0522855185
1864.34301	0.0524462238
1862.91330	0.0526001826
1861.48359	0.0527337901
1860.05388	0.0528515950
1858.62417	0.0529678240
1857.19446	0.0530920997
1855.76475	0.0532236360
1854.33504	0.0533544794
1852.90533	0.0534760542
1851.47562	0.0535818189
1850.04591	0.0536669306
1848.61619	0.0537314638
1847.18648	0.0537858978
1845.75677	0.0538513549
1844.32706	0.0539468080
1842.89735	0.0540731512
1841.46764	0.0542139895
1840.03793	0.0543531105
1838.60822	0.0544858538
1837.17851	0.0546137616
1835.74880	0.0547346920
1834.31909	0.0548409373
1832.88938	0.0549256504
1831.45966	0.0549904890
1830.02995	0.0550472848
1828.60024	0.0551134311
1827.17053	0.0552051924
1825.74082	0.0553328134
1824.31111	0.0554977395
1822.88140	0.0556923002
1821.45169	0.0559020527
1820.02198	0.0561107285
1818.59227	0.0563030317
1817.16256	0.0564666465
1815.73284	0.0565945208
1814.30313	0.0566902235
1812.87342	0.0567701347
1811.44371	0.0568576120
1810.01400	0.0569696352
1808.58429	0.0571064539
1807.15458	0.0572548658
1805.72487	0.0573997237
1804.29516	0.0575326905
1802.86545	0.0576542281
1801.43574	0.0577726066
1800.00602	0.0578998923
1798.57631	0.0580442846
1797.14660	0.0582023412
1795.71689	0.0583607480
1794.28718	0.0585086122
1792.85747	0.0586491786
1791.42776	0.0587992445
1789.99805	0.0589718968
1788.56834	0.0591634512
1787.13863	0.0593612976
1785.70892	0.0595575683
1784.27920	0.0597535409
1782.84949	0.0599539429
1781.41978	0.0601593442
1779.99007	0.0603648983
1778.56036	0.0605627559
1777.13065	0.0607445948
1775.70094	0.0609047078
1774.27123	0.0610476322
1772.84152	0.0611965917
1771.41181	0.0613856129
1769.98210	0.0616297275
1768.55238	0.0619090497
1767.12267	0.0621892139
1765.69296	0.0624503344
1764.26325	0.0626946613
1762.83354	0.0629386753
1761.40383	0.0632029101
1759.97412	0.0635044053
1758.54441	0.0638483837
1757.11470	0.0642229095
1755.68499	0.0646011904
1754.25528	0.0649581552
1752.82556	0.0652900189
1751.39585	0.0656225905
1749.96614	0.0659953132
1748.53643	0.0664287359
1747.10672	0.0669113025
1745.67701	0.0674190745
1744.24730	0.0679382458
1742.81759	0.0684617683
1741.38788	0.0689758733
1739.95817	0.0694599450
1738.52846	0.0699004009
1737.09874	0.0703047812
1735.66903	0.0707036853
1734.23932	0.0711434558
1732.80961	0.0716636181
1731.37990	0.0722714737
1729.95019	0.0729428232
1728.52048	0.0736475363
1727.09077	0.0743664801
1725.66106	0.0750915408
1724.23135	0.0758187994
1722.80164	0.0765475556
1721.37192	0.0772910491
1719.94221	0.0780910030
1718.51250	0.0790110976
1717.08279	0.0800792277
1715.65308	0.0812221095
1714.22337	0.0823142827
1712.79366	0.0832981914
1711.36395	0.0842081755
1709.93424	0.0851132721
1708.50453	0.0860687643
1707.07482	0.0871022791
1705.64510	0.0882276297
1704.21539	0.0894729123
1702.78568	0.0909019485
1701.35597	0.0926044509
1699.92626	0.0946367085
1698.49655	0.0969324932
1697.06684	0.0992888585
1695.63713	0.1014960185
1694.20742	0.1034620255
1692.77771	0.1052047908
1691.34800	0.1067874208
1689.91828	0.1082882658
1688.48857	0.1098091453
1687.05886	0.1114856601
1685.62915	0.1134397686
1684.19944	0.1156403497
1682.76973	0.1178433448
1681.34002	0.1198091432
1679.91031	0.1215161905
1678.48060	0.1231007949
1677.05089	0.1247077882
1675.62118	0.1264117658
1674.19147	0.1282136589
1672.76175	0.1300880462
1671.33204	0.1320200264
1669.90233	0.1339874864
1668.47262	0.1359361857
1667.04291	0.1378140152
1665.61320	0.1396233886
1664.18349	0.1414039731
1662.75378	0.1431519985
1661.32407	0.1447701603
1659.89436	0.1461168975
1658.46465	0.1470879614
1657.03493	0.1476231962
1655.60522	0.1476521045
1654.17551	0.1470981687
1652.74580	0.1460095346
1651.31609	0.1446311325
1649.88638	0.1431929320
1648.45667	0.1417353749
1647.02696	0.1402265579
1645.59725	0.1387227029
1644.16754	0.1373488456
1642.73783	0.1361604333
1641.30811	0.1350765675
1639.87840	0.1339258552
1638.44869	0.1325282305
1637.01898	0.1308064759
1635.58927	0.1288886517
1634.15956	0.1270302087
1632.72985	0.1253595650
1631.30014	0.1237897500
1629.87043	0.1221370250
1628.44072	0.1202326119
1627.01101	0.1179773137
1625.58129	0.1153865084
1624.15158	0.1126017049
1622.72187	0.1098052785
1621.29216	0.1070893481
1619.86245	0.1044128761
1618.43274	0.1016896218
1617.00303	0.0989324898
1615.57332	0.0963105112
1614.14361	0.0940245241
1612.71390	0.0921355709
1611.28419	0.0905515552
1609.85447	0.0891425535
1608.42476	0.0878399983
1606.99505	0.0866530091
1605.56534	0.0856193677
1604.13563	0.0847523883
1602.70592	0.0840353444
1601.27621	0.0834463537
1599.84650	0.0829712972
1598.41679	0.0825937465
1596.98708	0.0822888762
1595.55737	0.0820362866
1594.12765	0.0818372443
1592.69794	0.0817113742
1591.26823	0.0816764757
1589.83852	0.0817360282
1588.40881	0.0818855986
1586.97910	0.0821206570
1585.54939	0.0824332610
1584.11968	0.0828040913
1582.68997	0.0832081661
1581.26026	0.0836323872
1579.83055	0.0840873048
1578.40083	0.0845980197
1576.97112	0.0851780251
1575.54141	0.0858095810
1574.11170	0.0864601582
1572.68199	0.0871203095
1571.25228	0.0878138915
1569.82257	0.0885685012
1568.39286	0.0893789306
1566.96315	0.0902013555
1565.53344	0.0909913108
1564.10373	0.0917460322
1562.67401	0.0925224051
1561.24430	0.0934331417
1559.81459	0.0945979506
1558.38488	0.0959960595
1556.95517	0.0973864049
1555.52546	0.0985396057
1554.09575	0.0994254351
1552.66604	0.1001098156
1551.23633	0.1006327868
1549.80662	0.1009877846
1548.37691	0.1011490375
1546.94719	0.1010950580
1545.51748	0.1008000150
1544.08777	0.1002066731
1542.65806	0.0992431194
1541.22835	0.0979487225
1539.79864	0.0965742692
1538.36893	0.0953826383
1536.93922	0.0944085792
1535.50951	0.0935299024
1534.07980	0.0926354006
1532.65009	0.0916922241
1531.22037	0.0907256678
1529.79066	0.0897648782
1528.36095	0.0888077393
1526.93124	0.0878278315
1525.50153	0.0868031830
1524.07182	0.0857367888
1522.64211	0.0846564919
1521.21240	0.0836014077
1519.78269	0.0826040804
1518.35298	0.0816779137
1516.92327	0.0808135197
1515.49356	0.0799853876
1514.06384	0.0791584253
1512.63413	0.0782782584
1511.20442	0.0772526711
1509.77471	0.0759569705
1508.34500	0.0743385553
1506.91529	0.0726083666
1505.48558	0.0711781010
1504.05587	0.0702426657
1502.62616	0.0696609244
1501.19645	0.0692043453
1499.76674	0.0687263831
1498.33702	0.0681916997
1496.90731	0.0676474571
1495.47760	0.0671567246
1494.04789	0.0667361319
1492.61818	0.0663584024
1491.18847	0.0660012811
1489.75876	0.0656831414
1488.32905	0.0654562116
1486.89934	0.0653607249
1485.46963	0.0653891340
1484.03992	0.0655018762
1482.61020	0.0656607673
1481.18049	0.0658477694
1479.75078	0.0660625771
1478.32107	0.0663161799
1476.89136	0.0666249692
1475.46165	0.0670066476
1474.03194	0.0674674809
1472.60223	0.0679793209
1471.17252	0.0684808865
1469.74281	0.0689164996
1468.31310	0.0692652166
1466.88338	0.0695360973
1465.45367	0.0697524026
1464.02396	0.0699381679
1462.59425	0.0701082125
1461.16454	0.0702647269
1459.73483	0.0704017878
1458.30512	0.0705126971
1456.87541	0.0705959871
1455.44570	0.0706539750
1454.01599	0.0706849247
1452.58628	0.0706776157
1451.15656	0.0706161782
1449.72685	0.0704900771
1448.29714	0.0703066960
1446.86743	0.0700960159
1445.43772	0.0698948056
1444.00801	0.0697197020
1442.57830	0.0695569441
1441.14859	0.0693746284
1439.71888	0.0691456720
1438.28917	0.0688703284
1436.85946	0.0685882196
1435.42974	0.0683601648
1434.00003	0.0682271421
1432.57032	0.0681908876
1431.14061	0.0682321712
1429.71090	0.0683345869
1428.28119	0.0684919804
1426.85148	0.0686997026
1425.42177	0.0689465031
1423.99206	0.0692149699
1422.56235	0.0694882870
1421.13264	0.0697584227
1419.70292	0.0700291246
1418.27321	0.0703099519
1416.84350	0.0706049353
1415.41379	0.0709102750
1413.98408	0.0712215602
1412.55437	0.0715370327
1411.12466	0.0718538314
1409.69495	0.0721621290
1408.26524	0.0724458620
1406.83553	0.0726889595
1405.40582	0.0728823841
1403.97610	0.0730236992
1402.54639	0.0731112659
1401.11668	0.0731390789
1399.68697	0.0730983093
1398.25726	0.0729841292
1396.82755	0.0728049874
1395.39784	0.0725845322
1393.96813	0.0723497793
1392.53842	0.0721119121
1391.10871	0.0718613192
1389.67900	0.0715795159
1388.24928	0.0712586120
1386.81957	0.0709132031
1385.38986	0.0705737248
1383.96015	0.0702642128
1382.53044	0.0699877068
1381.10073	0.0697325915
1379.67102	0.0694897398
1378.24131	0.0692636073
1376.81160	0.0690701529
1375.38189	0.0689261481
1373.95218	0.0688380525
1372.52246	0.0687976256
1371.09275	0.0687849447
1369.66304	0.0687762722
1368.23333	0.0687507391
1366.80362	0.0686966106
1365.37391	0.0686163530
1363.94420	0.0685272291
1362.51449	0.0684544593
1361.08478	0.0684172213
1359.65507	0.0684198514
1358.22536	0.0684549138
1356.79565	0.0685134679
1355.36593	0.0685897991
1353.93622	0.0686789900
1352.50651	0.0687728748
1351.07680	0.0688599199
1349.64709	0.0689296350
1348.21738	0.0689784810
1346.78767	0.0690106750
1345.35796	0.0690347999
1343.92825	0.0690595657
1342.49854	0.0690930113
1341.06883	0.0691432431
1339.63911	0.0692184642
1338.20940	0.0693224818
1336.77969	0.0694505572
1335.34998	0.0695911571
1333.92027	0.0697327107
1332.49056	0.0698699653
1331.06085	0.0700043067
1329.63114	0.0701393038
1328.20143	0.0702791214
1326.77172	0.0704287291
1325.34201	0.0705951303
1323.91229	0.0707871616
1322.48258	0.0710091814
1321.05287	0.0712559298
1319.62316	0.0715113953
1318.19345	0.0717552230
1316.76374	0.0719708949
1315.33403	0.0721506029
1313.90432	0.0722949207
1312.47461	0.0724090412
1311.04490	0.0725008026
1309.61519	0.0725794509
1308.18547	0.0726549625
1306.75576	0.0727360323
1305.32605	0.0728265122
1303.89634	0.0729241148
1302.46663	0.0730207860
1301.03692	0.0731065497
1299.60721	0.0731747672
1298.17750	0.0732255355
1296.74779	0.0732663795
1295.31808	0.0733086690
1293.88837	0.0733620003
1292.45865	0.0734301060
1291.02894	0.0735102743
1289.59923	0.0735972077
1288.16952	0.0736888498
1286.73981	0.0737871975
1285.31010	0.0738952607
1283.88039	0.0740099251
1282.45068	0.0741213337
1281.02097	0.0742170811
1279.59126	0.0742927864
1278.16155	0.0743566751
1276.73183	0.0744256824
1275.30212	0.0745155290
1273.87241	0.0746334270
1272.44270	0.0747781470
1271.01299	0.0749459490
1269.58328	0.0751370862
1268.15357	0.0753571168
1266.72386	0.0756130069
1265.29415	0.0759090260
1263.86444	0.0762451440
1262.43473	0.0766179860
1261.00501	0.0770219043
1259.57530	0.0774486288
1258.14559	0.0778871700
1256.71588	0.0783236399
1255.28617	0.0787425563
1253.85646	0.0791287348
1252.42675	0.0794666633
1250.99704	0.0797400996
1249.56733	0.0799313933
1248.13762	0.0800252557
1246.70791	0.0800148621
1245.27819	0.0799079984
1243.84848	0.0797272548
1242.41877	0.0795028508
1240.98906	0.0792612806
1239.55935	0.0790146366
1238.12964	0.0787577331
1236.69993	0.0784746483
1235.27022	0.0781503171
1233.84051	0.0777813569
1232.41080	0.0773800686
1230.98109	0.0769686475
1229.55137	0.0765686408
1228.12166	0.0761913061
1226.69195	0.0758348256
1225.26224	0.0754891410
1223.83253	0.0751442239
1222.40282	0.0747966245
1220.97311	0.0744491890
1219.54340	0.0741063803
1218.11369	0.0737693682
1216.68398	0.0734357759
1215.25427	0.0731073096
1213.82455	0.0727960542
1212.39484	0.0725257322
1210.96513	0.0723203346
1209.53542	0.0721895769
1208.10571	0.0721197352
1206.67600	0.0720795169
1205.24629	0.0720365867
1203.81658	0.0719752014
1202.38687	0.0719043538
1200.95716	0.0718522146
1199.52745	0.0718529522
1198.09774	0.0719318837
1196.66802	0.0720971525
1195.23831	0.0723398402
1193.80860	0.0726405531
1192.37889	0.0729780942
1190.94918	0.0733357668
1189.51947	0.0737040937
1188.08976	0.0740809888
1186.66005	0.0744718313
1185.23034	0.0748892277
1183.80063	0.0753493011
1182.37092	0.0758656859
1180.94120	0.0764421895
1179.51149	0.0770717636
1178.08178	0.0777408853
1176.65207	0.0784375593
1175.22236	0.0791557878
1173.79265	0.0798945874
1172.36294	0.0806545317
1170.93323	0.0814369172
1169.50352	0.0822442025
1168.07381	0.0830794498
1166.64410	0.0839410201
1165.21438	0.0848155394
1163.78467	0.0856773481
1162.35496	0.0864983499
1160.92525	0.0872632340
1159.49554	0.0879780874
1158.06583	0.0886659622
1156.63612	0.0893506557
1155.20641	0.0900416002
1153.77670	0.0907312483
1152.34699	0.0914064646
1150.91728	0.0920619965
1149.48756	0.0927068591
1148.05785	0.0933589041
1146.62814	0.0940361321
1145.19843	0.0947517976
1143.76872	0.0955151170
1142.33901	0.0963344872
1140.90930	0.0972174481
1139.47959	0.0981685296
1138.04988	0.0991891176
1136.62017	0.1002769694
1135.19046	0.1014271900
1133.76074	0.1026312411
1132.33103	0.1038782969
1130.90132	0.1051580310
1129.47161	0.1064646989
1128.04190	0.1077967063
1126.61219	0.1091514155
1125.18248	0.1105189174
1123.75277	0.1118832678
1122.32306	0.1132300422
1120.89335	0.1145544872
1119.46364	0.1158624664
1118.03392	0.1171631366
1116.60421	0.1184579283
1115.17450	0.1197351664
1113.74479	0.1209734604
1112.31508	0.1221512929
1110.88537	0.1232564077
1109.45566	0.1242875904
1108.02595	0.1252470613
1106.59624	0.1261301935
1105.16653	0.1269186586
1103.73682	0.1275868565
1102.30710	0.1281188279
1100.87739	0.1285225302
1099.44768	0.1288327277
1098.01797	0.1290961206
1096.58826	0.1293502897
1095.15855	0.1296065301
1093.72884	0.1298486888
1092.29913	0.1300439984
1090.86942	0.1301611513
1089.43971	0.1301836073
1088.01000	0.1301135719
1086.58028	0.1299652159
1085.15057	0.1297522485
1083.72086	0.1294761449
1082.29115	0.1291228384
1080.86144	0.1286692768
1079.43173	0.1280952543
1078.00202	0.1273941249
1076.57231	0.1265758127
1075.14260	0.1256620437
1073.71289	0.1246776059
1072.28318	0.1236433312
1070.85346	0.1225712150
1069.42375	0.1214653403
1067.99404	0.1203233376
1066.56433	0.1191396862
1065.13462	0.1179069132
1063.70491	0.1166153550
1062.27520	0.1152518094
1060.84549	0.1137999073
1059.41578	0.1122452691
1057.98607	0.1105840281
1056.55636	0.1088301912
1055.12664	0.1070157811
1053.69693	0.1051817760
1052.26722	0.1033637524
1050.83751	0.1015814394
1049.40780	0.0998396426
1047.97809	0.0981382504
1046.54838	0.0964837745
1045.11867	0.0948909447
1043.68896	0.0933751762
1042.25925	0.0919413790
1040.82954	0.0905808285
1039.39983	0.0892789885
1037.97011	0.0880265906
1036.54040	0.0868267044
1035.11069	0.0856909379
1033.68098	0.0846307948
1032.25127	0.0836493596
1030.82156	0.0827397257
1029.39185	0.0818889439
1027.96214	0.0810843706
1026.53243	0.0803185701
1025.10272	0.0795908272
1023.67301	0.0789082944
1022.24329	0.0782860368
1020.81358	0.0777454078
1019.38387	0.0773096383
1017.95416	0.0769968405
1016.52445	0.0768147409
1015.09474	0.0767612308
1013.66503	0.0768293217
1012.23532	0.0770138353
1010.80561	0.0773142800
1009.37590	0.0777322501
1007.94619	0.0782656744
1006.51647	0.0789037347
1005.08676	0.0796250626
1003.65705	0.0804022029
1002.22734	0.0812089071
1000.79763	0.0820265263
999.36792	0.0828444436
997.93821	0.0836528167
996.50850	0.0844327658
995.07879	0.0851518810
993.64908	0.0857674107
992.21937	0.0862382129
990.78965	0.0865360349
989.35994	0.0866514295
987.93023	0.0865915790
986.50052	0.0863733292
985.07081	0.0860140771
983.64110	0.0855281353
982.21139	0.0849238336
980.78168	0.0842050985
979.35197	0.0833737403
977.92226	0.0824341327
976.49255	0.0813987926
975.06283	0.0802908540
973.63312	0.0791439191
972.20341	0.0779943690
970.77370	0.0768716484
969.34399	0.0757907182
967.91428	0.0747526884
966.48457	0.0737530813
965.05486	0.0727916136
963.62515	0.0718784854
962.19544	0.0710325986
960.76573	0.0702738315
959.33601	0.0696137920
957.90630	0.0690506399
956.47659	0.0685716346
955.04688	0.0681602955
953.61717	0.0678044781
952.18746	0.0674971715
950.75775	0.0672343597
949.32804	0.0670115128
947.89833	0.0668245554
946.46862	0.0666738898
945.03891	0.0665645599
943.60919	0.0664999932
942.17948	0.0664735660
940.74977	0.0664658099
939.32006	0.0664500967
937.89035	0.0664033964
936.46064	0.0663148537
935.03093	0.0661863163
933.60122	0.0660286397
932.17151	0.0658559650
930.74180	0.0656801015
929.31209	0.0655076504
927.88237	0.0653402060
926.45266	0.0651782677
925.02295	0.0650260448
923.59324	0.0648924112
922.16353	0.0647841021
920.73382	0.0646944121
919.30411	0.0645989999
917.87440	0.0644631907
916.44469	0.0642602220
915.01498	0.0639863089
913.58527	0.0636627525
912.15555	0.0633253902
910.72584	0.0630102530
909.29613	0.0627461299
907.86642	0.0625531077
906.43671	0.0624415204
905.00700	0.0624090917
903.57729	0.0624405630
902.14758	0.0625163689
900.71787	0.0626249537
899.28816	0.0627696440
897.85845	0.0629608780
896.42873	0.0632031485
894.99902	0.0634847805
893.56931	0.0637831092
892.13960	0.0640767813
890.70989	0.0643563941
889.28018	0.0646266341
887.85047	0.0649026036
886.42076	0.0652018785
884.99105	0.0655367300
883.56134	0.0659057945
882.13163	0.0662919059
880.70192	0.0666659847
879.27220	0.0669979453
877.84249	0.0672673881
876.41278	0.0674707144
874.98307	0.0676234365
873.55336	0.0677561238
872.12365	0.0679027066
870.69394	0.0680812597
869.26423	0.0682796985
867.83452	0.0684577674
866.40481	0.0685686991
864.97510	0.0685860962
863.54538	0.0685144663
862.11567	0.0683774948
860.68596	0.0681950375
859.25625	0.0679704845
857.82654	0.0676964000
856.39683	0.0673682541
854.96712	0.0669932365
853.53741	0.0665882453
852.10770	0.0661709979
850.67799	0.0657531023
849.24828	0.0653390959
847.81856	0.0649298057
846.38885	0.0645251423
844.95914	0.0641269460
843.52943	0.0637389496
842.09972	0.0633638427
840.67001	0.0630016625
839.24030	0.0626513585
837.81059	0.0623136759
836.38088	0.0619929731
834.95117	0.0616935119
833.52146	0.0614125393
832.09174	0.0611366592
830.66203	0.0608456507
829.23232	0.0605227910
827.80261	0.0601647235
826.37290	0.0597846732
824.94319	0.0594082773
823.51348	0.0590653643
822.08377	0.0587814301
820.65406	0.0585685372
819.22435	0.0584194101
817.79464	0.0583070405
816.36492	0.0581958592
814.93521	0.0580588989
813.50550	0.0578929111
812.07579	0.0577186197
810.64608	0.0575680099
809.21637	0.0574652292
807.78666	0.0574160628
806.35695	0.0574075542
804.92724	0.0574182495
803.49753	0.0574282371
802.06782	0.0574265234
800.63810	0.0574119873
799.20839	0.0573891774
797.77868	0.0573618524
796.34897	0.0573295653
794.91926	0.0572887734
793.48955	0.0572400130
792.05984	0.0571911074
790.63013	0.0571545511
789.20042	0.0571420938
787.77071	0.0571596324
786.34100	0.0572072007
784.91128	0.0572788790
783.48157	0.0573609658
782.05186	0.0574324317
780.62215	0.0574706048
779.19244	0.0574632771
777.76273	0.0574168004
776.33302	0.0573533736
774.90331	0.0572995245
773.47360	0.0572730005
772.04389	0.0572750978
770.61418	0.0572913140
769.18446	0.0572969243
767.75475	0.0572686009
766.32504	0.0571978986
764.89533	0.0570988990
763.46562	0.0570040196
762.03591	0.0569461994
760.60620	0.0569418333
759.17649	0.0569851585
757.74678	0.0570564158
756.31707	0.0571328811
754.88736	0.0571921133
753.45764	0.0572132841
752.02793	0.0571832545
750.59822	0.0571081974
749.16851	0.0570196360
747.73880	0.0569628477
746.30909	0.0569724105
744.87938	0.0570521653
743.44967	0.0571746603
742.01996	0.0572995543
740.59025	0.0573937558
739.16054	0.0574422106
737.73082	0.0574463755
736.30111	0.0574204363
734.87140	0.0573878475
733.44169	0.0573772416
732.01198	0.0574131981
730.58227	0.0575050898
729.15256	0.0576430559
727.72285	0.0578061715
726.29314	0.0579757951
724.86343	0.0581435598
723.43372	0.0583074577
722.00401	0.0584655777
720.57429	0.0586148389
719.14458	0.0587574542
717.71487	0.0589065515
716.28516	0.0590807274
714.85545	0.0592898093
713.42574	0.0595240779
711.99603	0.0597575530
710.56632	0.0599635132
709.13661	0.0601321682
707.70690	0.0602760576
706.27719	0.0604187138
704.84747	0.0605751649
703.41776	0.0607371219
701.98805	0.0608726628
700.55834	0.0609409250
699.12863	0.0609134957
697.69892	0.0607904755
696.26921	0.0606026947
694.83950	0.0603970550
693.40979	0.0602124482
691.98008	0.0600619502
690.55037	0.0599317737
689.12065	0.0597975664
687.69094	0.0596440658
686.26123	0.0594771132
684.83152	0.0593206696
683.40181	0.0592069142
681.97210	0.0591651425
680.54239	0.0592115112
679.11268	0.0593402870
677.68297	0.0595168620
676.25326	0.0596876927
674.82355	0.0598057061
673.39383	0.0598557666
671.96412	0.0598604903
670.53441	0.0598627478
669.10470	0.0598896965
667.67499	0.0599156097
666.24528	0.0598776937
664.81557	0.0597449280
663.38586	0.0595477708
661.95615	0.0593498424
660.52644	0.0592116304
659.09673	0.0591600724
657.66701	0.0591694154
656.23730	0.0591725595
654.80759	0.0591043383
653.37788	0.0589435808
651.94817	0.0587214194
650.51846	0.0584965274
649.08875	0.0583173148
647.65904	0.0581962131
646.22933	0.0581119545
644.79962	0.0580319762
643.36991	0.0579374880
641.94019	0.0578330196
640.51048	0.0577374212
639.08077	0.0576665550
637.65106	0.0576218031
636.22135	0.0575907975
634.79164	0.0575536452
633.36193	0.0574880987
631.93222	0.0573718064
630.50251	0.0571853779
629.07280	0.0569184907
627.64309	0.0565735251
626.21337	0.0561607480
624.78366	0.0556876808
623.35395	0.0551559292
621.92424	0.0545774810
620.49453	0.0540024973
619.06482	0.0535198562
617.63511	0.0532136559
616.20540	0.0531061105
614.77569	0.0531373248
613.34598	0.0531982668
611.91627	0.0531907491
610.48655	0.0530766249
609.05684	0.0528903045
607.62713	0.0527115501
606.19742	0.0526191741
604.76771	0.0526514649
603.33800	0.0527947359
601.90829	0.0529955178
600.47858	0.0531833433
599.04887	0.0532984622
