3997.47168	0.0127172926
3996.04197	0.0127003938
3994.61226	0.0126643851
3993.18255	0.0126186796
3991.75284	0.0125854230
3990.32312	0.0125875548
3988.89341	0.0126347756
3987.46370	0.0127165457
3986.03399	0.0128070228
3984.60428	0.0128786126
3983.17457	0.0129137058
3981.74486	0.0129082389
3980.31515	0.0128682936
3978.88544	0.0128040640
3977.45573	0.0127290208
3976.02602	0.0126608666
3974.59630	0.0126201985
3973.16659	0.0126236631
3971.73688	0.0126727810
3970.30717	0.0127496263
3968.87746	0.0128253391
3967.44775	0.0128750661
3966.01804	0.0128902923
3964.58833	0.0128805330
3963.15862	0.0128634674
3961.72891	0.0128537081
3960.29920	0.0128550678
3958.86948	0.0128618143
3957.43977	0.0128634674
3956.01006	0.0128515754
3954.58035	0.0128223002
3953.15064	0.0127777243
3951.72093	0.0127262753
3950.29122	0.0126797371
3948.86151	0.0126505531
3947.43180	0.0126459692
3946.00209	0.0126657439
3944.57238	0.0127029521
3943.14266	0.0127475737
3941.71295	0.0127908401
3940.28324	0.0128273657
3938.85353	0.0128558949
3937.42382	0.0128751732
3935.99411	0.0128818126
3934.56440	0.0128699737
3933.13469	0.0128365904
3931.70498	0.0127894543
3930.27527	0.0127475467
3928.84556	0.0127324061
3927.41585	0.0127550643
3925.98613	0.0128085157
3924.55642	0.0128718670
3923.12671	0.0129210660
3921.69700	0.0129415467
3920.26729	0.0129341334
3918.83758	0.0129139721
3917.40787	0.0129025588
3915.97816	0.0129173854
3914.54845	0.0129612023
3913.11874	0.0130183073
3911.68903	0.0130602932
3910.25931	0.0130556514
3908.82960	0.0129819792
3907.39989	0.0128352577
3905.97018	0.0126369344
3904.54047	0.0124366237
3903.11076	0.0122995935
3901.68105	0.0122738164
3900.25134	0.0123565048
3898.82163	0.0124989348
3897.39192	0.0126458621
3895.96221	0.0127637815
3894.53249	0.0128444834
3893.10278	0.0128962118
3891.67307	0.0129333595
3890.24336	0.0129661094
3888.81365	0.0129947281
3887.38394	0.0130109452
3885.95423	0.0130055305
3884.52452	0.0129774716
3883.09481	0.0129376799
3881.66510	0.0129033318
3880.23539	0.0128823994
3878.80567	0.0128646409
3877.37596	0.0128280856
3875.94625	0.0127573572
3874.51654	0.0126573220
3873.08683	0.0125560584
3871.65712	0.0124881985
3870.22741	0.0124715483
3868.79770	0.0124961641
3867.36799	0.0125432685
3865.93828	0.0126058077
3864.50857	0.0126833888
3863.07885	0.0127603430
3861.64914	0.0127992118
3860.21943	0.0127593828
3858.78972	0.0126238493
3857.36001	0.0124147283
3855.93030	0.0122114848
3854.50059	0.0121498276
3853.07088	0.0123320296
3851.64117	0.0126954094
3850.21146	0.0130626410
3848.78175	0.0133102154
3847.35203	0.0134101063
3845.92232	0.0133830896
3844.49261	0.0132669238
3843.06290	0.0131096477
3841.63319	0.0129676834
3840.20348	0.0128940521
3838.77377	0.0129142925
3837.34406	0.0130093452
3835.91435	0.0131291235
3834.48464	0.0132291066
3833.05493	0.0132950544
3831.62521	0.0133336773
3830.19550	0.0133537250
3828.76579	0.0133559406
3827.33608	0.0133365868
3825.90637	0.0132960156
3824.47666	0.0132426107
3823.04695	0.0131896129
3821.61724	0.0131518561
3820.18753	0.0131459590
3818.75782	0.0131887048
3817.32811	0.0132886218
3815.89839	0.0134309046
3814.46868	0.0135789225
3813.03897	0.0136918053
3811.60926	0.0137434490
3810.17955	0.0137282461
3808.74984	0.0136593217
3807.32013	0.0135640195
3805.89042	0.0134752803
3804.46071	0.0134187834
3803.03100	0.0134049542
3801.60129	0.0134333875
3800.17157	0.0135028912
3798.74186	0.0136172771
3797.31215	0.0137784509
3795.88244	0.0139756929
3794.45273	0.0141829457
3793.02302	0.0143650128
3791.59331	0.0144920442
3790.16360	0.0145530980
3788.73389	0.0145614762
3787.30418	0.0145492703
3785.87447	0.0145533392
3784.44475	0.0145965712
3783.01504	0.0146784708
3781.58533	0.0147798825
3780.15562	0.0148737375
3778.72591	0.0149375778
3777.29620	0.0149606997
3775.86649	0.0149462046
3774.43678	0.0149081079
3773.00707	0.0148684867
3771.57736	0.0148523077
3770.14765	0.0148772737
3768.71794	0.0149422660
3767.28822	0.0150255980
3765.85851	0.0150999930
3764.42880	0.0151464967
3762.99909	0.0151596041
3761.56938	0.0151406536
3760.13967	0.0150934001
3758.70996	0.0150196487
3757.28025	0.0149175115
3755.85054	0.0147850523
3754.42083	0.0146276001
3752.99112	0.0144667793
3751.56140	0.0143352868
3750.13169	0.0142586948
3748.70198	0.0142444111
3747.27227	0.0143016307
3745.84256	0.0144591788
3744.41285	0.0147335520
3742.98314	0.0150800264
3741.55343	0.0154030398
3740.12372	0.0156168258
3738.69401	0.0156864654
3737.26430	0.0156337302
3735.83458	0.0155300265
3734.40487	0.0154633904
3732.97516	0.0154814161
3731.54545	0.0155661665
3730.11574	0.0156754609
3728.68603	0.0157818310
3727.25632	0.0158802792
3725.82661	0.0159810577
3724.39690	0.0161006115
3722.96719	0.0162511021
3721.53748	0.0164301656
3720.10776	0.0166150071
3718.67805	0.0167696029
3717.24834	0.0168606043
3715.81863	0.0168746244
3714.38892	0.0168350395
3712.95921	0.0168098006
3711.52950	0.0168831293
3710.09979	0.0170847215
3708.67008	0.0173518136
3707.24037	0.0175923035
3705.81066	0.0177612975
3704.38094	0.0178752728
3702.95123	0.0179835577
3701.52152	0.0181306805
3700.09181	0.0183282085
3698.66210	0.0185502730
3697.23239	0.0187561531
3695.80268	0.0189180840
3694.37297	0.0190383680
3692.94326	0.0191539507
3691.51355	0.0193237979
3690.08384	0.0195909981
3688.65412	0.0199362487
3687.22441	0.0202883650
3685.79470	0.0205871835
3684.36499	0.0208156481
3682.93528	0.0209773425
3681.50557	0.0210781172
3680.07586	0.0211320333
3678.64615	0.0211805180
3677.21644	0.0212964825
3675.78673	0.0215482805
3674.35702	0.0219486449
3672.92730	0.0224570408
3671.49759	0.0230327379
3670.06788	0.0236596316
3668.63817	0.0243236199
3667.20846	0.0249962509
3665.77875	0.0256482828
3664.34904	0.0262670852
3662.91933	0.0268539730
3661.48962	0.0274149068
3660.05991	0.0279551726
3658.63020	0.0284801330
3657.20048	0.0289915893
3655.77077	0.0294828676
3654.34106	0.0299498253
3652.91135	0.0304187853
3651.48164	0.0309678335
3650.05193	0.0316979252
3648.62222	0.0326310173
3647.19251	0.0336501040
3645.76280	0.0346072502
3644.33309	0.0354543403
3642.90338	0.0362320580
3641.47366	0.0369997285
3640.04395	0.0377933532
3638.61424	0.0386143178
3637.18453	0.0394324996
3635.75482	0.0402034670
3634.32511	0.0409017056
3632.89540	0.0415587090
3631.46569	0.0422789939
3630.03598	0.0431881137
3628.60627	0.0443057455
3627.17656	0.0454851240
3625.74684	0.0465472527
3624.31713	0.0474333093
3622.88742	0.0481998250
3621.45771	0.0489389785
3620.02800	0.0497180559
3618.59829	0.0505530275
3617.16858	0.0514152199
3615.73887	0.0522682630
3614.30916	0.0531015173
3612.87945	0.0539354943
3611.44974	0.0548053719
3610.02003	0.0557312667
3608.59031	0.0566962399
3607.16060	0.0576555319
3605.73089	0.0585732758
3604.30118	0.0594444908
3602.87147	0.0602844432
3601.44176	0.0611060895
3600.01205	0.0619136170
3598.58234	0.0627123341
3597.15263	0.0635120720
3595.72292	0.0643149093
3594.29321	0.0651062354
3592.86349	0.0658727735
3591.43378	0.0666295588
3590.00407	0.0674244240
3588.57436	0.0683021769
3587.14465	0.0692558959
3585.71494	0.0702207536
3584.28523	0.0711272955
3582.85552	0.0719521046
3581.42581	0.0727180988
3579.99610	0.0734643489
3578.56639	0.0742221475
3577.13667	0.0750002787
3575.70696	0.0757785439
3574.27725	0.0765205994
3572.84754	0.0772013962
3571.41783	0.0778336227
3569.98812	0.0784742460
3568.55841	0.0791995823
3567.12870	0.0800567195
3565.69899	0.0810216069
3564.26928	0.0820157751
3562.83957	0.0829622447
3561.40985	0.0838213190
3559.98014	0.0845890567
3558.55043	0.0852906629
3557.12072	0.0859699026
3555.69101	0.0866709948
3554.26130	0.0874153599
3552.83159	0.0881937891
3551.40188	0.0889815018
3549.97217	0.0897640213
3548.54246	0.0905454680
3547.11275	0.0913396627
3545.68303	0.0921518579
3544.25332	0.0929715112
3542.82361	0.0937801823
3541.39390	0.0945655406
3539.96419	0.0953285396
3538.53448	0.0960787609
3537.10477	0.0968214199
3535.67506	0.0975479782
3534.24535	0.0982413515
3532.81564	0.0988981947
3531.38593	0.0995459035
3529.95621	0.1002319083
3528.52650	0.1009908244
3527.09679	0.1018149033
3525.66708	0.1026573405
3524.23737	0.1034659073
3522.80766	0.1042156890
3521.37795	0.1049145907
3519.94824	0.1055857614
3518.51853	0.1062483564
3517.08882	0.1069077924
3515.65911	0.1075570211
3514.22939	0.1081847697
3512.79968	0.1087892577
3511.36997	0.1093845218
3509.94026	0.1099914834
3508.51055	0.1106206626
3507.08084	0.1112658679
3505.65113	0.1119163260
3504.22142	0.1125722826
3502.79171	0.1132435128
3501.36200	0.1139338538
3499.93229	0.1146314591
3498.50257	0.1153175682
3497.07286	0.1159811914
3495.64315	0.1166215464
3494.21344	0.1172395274
3492.78373	0.1178327501
3491.35402	0.1183973327
3489.92431	0.1189339310
3488.49460	0.1194482818
3487.06489	0.1199528351
3485.63518	0.1204684302
3484.20547	0.1210219562
3482.77575	0.1216289029
3481.34604	0.1222740486
3479.91633	0.1229147241
3478.48662	0.1235098019
3477.05691	0.1240497530
3475.62720	0.1245577261
3474.19749	0.1250640452
3472.76778	0.1255810410
3471.33807	0.1260995567
3469.90836	0.1266027689
3468.47865	0.1270765513
3467.04893	0.1275142878
3465.61922	0.1279188246
3464.18951	0.1283048093
3462.75980	0.1286938190
3461.33009	0.1291013062
3459.90038	0.1295277029
3458.47067	0.1299619377
3457.04096	0.1303928494
3455.61125	0.1308140010
3454.18154	0.1312202960
3452.75183	0.1316071302
3451.32212	0.1319762319
3449.89240	0.1323389262
3448.46269	0.1327091604
3447.03298	0.1330900341
3445.60327	0.1334726363
3444.17356	0.1338492483
3442.74385	0.1342245042
3441.31414	0.1346089840
3439.88443	0.1350056976
3438.45472	0.1354038864
3437.02501	0.1357874274
3435.59530	0.1361457556
3434.16558	0.1364740282
3432.73587	0.1367707849
3431.30616	0.1370361000
3429.87645	0.1372752935
3428.44674	0.1375000477
3427.01703	0.1377238333
3425.58732	0.1379567832
3424.15761	0.1382059157
3422.72790	0.1384737790
3421.29819	0.1387560964
3419.86848	0.1390406638
3418.43876	0.1393125653
3417.00905	0.1395639479
3415.57934	0.1397974342
3414.14963	0.1400209963
3412.71992	0.1402405351
3411.29021	0.1404603273
3409.86050	0.1406870186
3408.43079	0.1409277767
3407.00108	0.1411828399
3405.57137	0.1414387375
3404.14166	0.1416708380
3402.71194	0.1418564320
3401.28223	0.1419871449
3399.85252	0.1420748532
3398.42281	0.1421469450
3396.99310	0.1422334015
3395.56339	0.1423510760
3394.13368	0.1424930394
3392.70397	0.1426354200
3391.27426	0.1427559406
3389.84455	0.1428501308
3388.41484	0.1429289430
3386.98512	0.1430076659
3385.55541	0.1430941969
3384.12570	0.1431913078
3382.69599	0.1433014721
3381.26628	0.1434253454
3379.83657	0.1435559988
3378.40686	0.1436799020
3376.97715	0.1437873393
3375.54744	0.1438832432
3374.11773	0.1439851075
3372.68802	0.1441080868
3371.25830	0.1442504525
3369.82859	0.1443942040
3368.39888	0.1445170492
3366.96917	0.1446065009
3365.53946	0.1446644962
3364.10975	0.1447025388
3362.68004	0.1447317600
3361.25033	0.1447588205
3359.82062	0.1447911859
3358.39091	0.1448432505
3356.96120	0.1449346095
3355.53148	0.1450733393
3354.10177	0.1452394873
3352.67206	0.1453883350
3351.24235	0.1454780400
3349.81264	0.1455015987
3348.38293	0.1454944313
3346.95322	0.1455111504
3345.52351	0.1455881298
3344.09380	0.1457248628
3342.66409	0.1458902806
3341.23438	0.1460468471
3339.80466	0.1461683959
3338.37495	0.1462450922
3336.94524	0.1462820321
3335.51553	0.1462967992
3334.08582	0.1463169903
3332.65611	0.1463740915
3331.22640	0.1464902908
3329.79669	0.1466660202
3328.36698	0.1468759775
3326.93727	0.1470784843
3325.50756	0.1472352445
3324.07784	0.1473316699
3322.64813	0.1473836899
3321.21842	0.1474257708
3319.78871	0.1474888772
3318.35900	0.1475866139
3316.92929	0.1477178633
3315.49958	0.1478798538
3314.06987	0.1480805427
3312.64016	0.1483336538
3311.21045	0.1486437768
3309.78074	0.1489897370
3308.35102	0.1493222564
3306.92131	0.1495826095
3305.49160	0.1497317106
3304.06189	0.1497751921
3302.63218	0.1497631073
3301.20247	0.1497637630
3299.77276	0.1498249024
3298.34305	0.1499477625
3296.91334	0.1500891596
3295.48363	0.1501876712
3294.05392	0.1501940638
3292.62421	0.1500908136
3291.19449	0.1498952359
3289.76478	0.1496488005
3288.33507	0.1493991613
3286.90536	0.1491797566
3285.47565	0.1489961445
3284.04594	0.1488287449
3282.61623	0.1486469209
3281.18652	0.1484278589
3279.75681	0.1481675208
3278.32710	0.1478790641
3276.89739	0.1475804597
3275.46767	0.1472795308
3274.03796	0.1469630450
3272.60825	0.1465997249
3271.17854	0.1461553872
3269.74883	0.1456142664
3268.31912	0.1449904889
3266.88941	0.1443225592
3265.45970	0.1436544955
3264.02999	0.1430179477
3262.60028	0.1424242258
3261.17057	0.1418658048
3259.74085	0.1413236111
3258.31114	0.1407736838
3256.88143	0.1401992738
3255.45172	0.1396028250
3254.02201	0.1390096396
3252.59230	0.1384547353
3251.16259	0.1379565299
3249.73288	0.1375013739
3248.30317	0.1370526701
3246.87346	0.1365780234
3245.44375	0.1360732317
3244.01403	0.1355636567
3242.58432	0.1350853741
3241.15461	0.1346625537
3239.72490	0.1342984587
3238.29519	0.1339796185
3236.86548	0.1336855292
3235.43577	0.1333933622
3234.00606	0.1330810040
3232.57635	0.1327294260
3231.14664	0.1323304325
3229.71693	0.1318911165
3228.28721	0.1314336658
3226.85750	0.1309879124
3225.42779	0.1305788308
3223.99808	0.1302166581
3222.56837	0.1298942119
3221.13866	0.1295912564
3219.70895	0.1292850971
3218.27924	0.1289594322
3216.84953	0.1286100000
3215.41982	0.1282425225
3213.99011	0.1278673559
3212.56039	0.1274928898
3211.13068	0.1271225363
3209.70097	0.1267555803
3208.27126	0.1263896376
3206.84155	0.1260216385
3205.41184	0.1256484836
3203.98213	0.1252674013
3202.55242	0.1248769611
3201.12271	0.1244796216
3199.69300	0.1240826547
3198.26329	0.1236956120
3196.83357	0.1233253106
3195.40386	0.1229713410
3193.97415	0.1226249039
3192.54444	0.1222729459
3191.11473	0.1219045818
3189.68502	0.1215168387
3188.25531	0.1211156547
3186.82560	0.1207120717
3185.39589	0.1203130260
3183.96618	0.1199165657
3182.53647	0.1195113361
3181.10675	0.1190821677
3179.67704	0.1186190620
3178.24733	0.1181218326
3176.81762	0.1176021546
3175.38791	0.1170808300
3173.95820	0.1165821403
3172.52849	0.1161255464
3171.09878	0.1157160997
3169.66907	0.1153406203
3168.23936	0.1149723530
3166.80965	0.1145838052
3165.37993	0.1141603887
3163.95022	0.1137057617
3162.52051	0.1132377014
3161.09080	0.1127786040
3159.66109	0.1123455763
3158.23138	0.1119436547
3156.80167	0.1115639657
3155.37196	0.1111868769
3153.94225	0.1107908785
3152.51254	0.1103624925
3151.08283	0.1099022180
3149.65311	0.1094236523
3148.22340	0.1089456156
3146.79369	0.1084870771
3145.36398	0.1080602929
3143.93427	0.1076660007
3142.50456	0.1072901636
3141.07485	0.1069075614
3139.64514	0.1064939052
3138.21543	0.1060419083
3136.78572	0.1055680364
3135.35601	0.1051030606
3133.92629	0.1046720743
3132.49658	0.1042791680
3131.06687	0.1039088443
3129.63716	0.1035415307
3128.20745	0.1031709835
3126.77774	0.1028079987
3125.34803	0.1024698317
3123.91832	0.1021651998
3122.48861	0.1018850431
3121.05890	0.1016070545
3119.62919	0.1013074070
3118.19948	0.1009728909
3116.76976	0.1006056368
3115.34005	0.1002197117
3113.91034	0.0998324081
3112.48063	0.0994541422
3111.05092	0.0990843624
3109.62121	0.0987157077
3108.19150	0.0983440578
3106.76179	0.0979748070
3105.33208	0.0976204425
3103.90237	0.0972891450
3102.47266	0.0969762802
3101.04294	0.0966690406
3099.61323	0.0963594690
3098.18352	0.0960537642
3096.75381	0.0957658961
3095.32410	0.0955033153
3093.89439	0.0952577442
3092.46468	0.0950124487
3091.03497	0.0947568864
3089.60526	0.0944939777
3088.17555	0.0942354724
3086.74584	0.0939894617
3085.31612	0.0937547684
3083.88641	0.0935213938
3082.45670	0.0932750776
3081.02699	0.0929998532
3079.59728	0.0926803574
3078.16757	0.0923078433
3076.73786	0.0918894336
3075.30815	0.0914513543
3073.87844	0.0910299346
3072.44873	0.0906548202
3071.01902	0.0903324187
3069.58930	0.0900419801
3068.15959	0.0897458121
3066.72988	0.0894098729
3065.30017	0.0890217870
3063.87046	0.0885946602
3062.44075	0.0881563053
3061.01104	0.0877315104
3059.58133	0.0873303041
3058.15162	0.0869503319
3056.72191	0.0865852609
3055.29220	0.0862296224
3053.86248	0.0858762637
3052.43277	0.0855137333
3051.00306	0.0851310045
3049.57335	0.0847273096
3048.14364	0.0843155682
3046.71393	0.0839122236
3045.28422	0.0835233107
3043.85451	0.0831395686
3042.42480	0.0827486515
3040.99509	0.0823512673
3039.56538	0.0819630921
3038.13566	0.0815992206
3036.70595	0.0812556893
3035.27624	0.0809067935
3033.84653	0.0805232376
3032.41682	0.0800949782
3030.98711	0.0796392113
3029.55740	0.0791874081
3028.12769	0.0787646472
3026.69798	0.0783797875
3025.26827	0.0780291632
3023.83856	0.0777073875
3022.40884	0.0774113759
3020.97913	0.0771378577
3019.54942	0.0768784136
3018.11971	0.0766185075
3016.69000	0.0763420686
3015.26029	0.0760360062
3013.83058	0.0756950304
3012.40087	0.0753235891
3010.97116	0.0749362558
3009.54145	0.0745544657
3008.11174	0.0741995424
3006.68202	0.0738853216
3005.25231	0.0736141950
3003.82260	0.0733804181
3002.39289	0.0731757507
3000.96318	0.0729956776
2999.53347	0.0728411153
2998.10376	0.0727153420
2996.67405	0.0726190433
2995.24434	0.0725455210
2993.81463	0.0724817738
2992.38492	0.0724147633
2990.95520	0.0723418295
2989.52549	0.0722767040
2988.09578	0.0722452402
2986.66607	0.0722704977
2985.23636	0.0723579079
2983.80665	0.0724901855
2982.37694	0.0726374909
2980.94723	0.0727752671
2979.51752	0.0728969276
2978.08781	0.0730145052
2976.65810	0.0731469244
2975.22838	0.0733063146
2973.79867	0.0734914243
2972.36896	0.0736899823
2970.93925	0.0738870725
2969.50954	0.0740707368
2968.07983	0.0742323697
2966.65012	0.0743625164
2965.22041	0.0744481385
2963.79070	0.0744740441
2962.36099	0.0744287521
2960.93128	0.0743094608
2959.50157	0.0741230249
2958.07185	0.0738813952
2956.64214	0.0735948458
2955.21243	0.0732701793
2953.78272	0.0729149878
2952.35301	0.0725459829
2950.92330	0.0721903741
2949.49359	0.0718796179
2948.06388	0.0716348290
2946.63417	0.0714578331
2945.20446	0.0713336244
2943.77475	0.0712430924
2942.34503	0.0711762980
2940.91532	0.0711352229
2939.48561	0.0711280853
2938.05590	0.0711605921
2936.62619	0.0712295473
2935.19648	0.0713201091
2933.76677	0.0714041963
2932.33706	0.0714444071
2930.90735	0.0714055672
2929.47764	0.0712711215
2928.04793	0.0710532367
2926.61821	0.0707867965
2925.18850	0.0705097467
2923.75879	0.0702411458
2922.32908	0.0699745342
2920.89937	0.0696861446
2919.46966	0.0693504810
2918.03995	0.0689508393
2916.61024	0.0684810728
2915.18053	0.0679420009
2913.75082	0.0673392937
2912.32111	0.0666849390
2910.89139	0.0660004616
2909.46168	0.0653170347
2908.03197	0.0646697432
2906.60226	0.0640877038
2905.17255	0.0635843500
2903.74284	0.0631567463
2902.31313	0.0627912357
2900.88342	0.0624720380
2899.45371	0.0621842556
2898.02400	0.0619149320
2896.59429	0.0616504289
2895.16457	0.0613794997
2893.73486	0.0610969998
2892.30515	0.0608086102
2890.87544	0.0605305545
2889.44573	0.0602862276
2888.01602	0.0600986332
2886.58631	0.0599819385
2885.15660	0.0599341802
2883.72689	0.0599374212
2882.29718	0.0599676445
2880.86747	0.0600061007
2879.43775	0.0600440577
2878.00804	0.0600755364
2876.57833	0.0600849278
2875.14862	0.0600437000
2873.71891	0.0599200651
2872.28920	0.0596978217
2870.85949	0.0593873858
2869.42978	0.0590228401
2868.00007	0.0586473122
2866.57036	0.0582975373
2865.14065	0.0579955578
2863.71093	0.0577474460
2862.28122	0.0575456060
2860.85151	0.0573730469
2859.42180	0.0572089739
2857.99209	0.0570364892
2856.56238	0.0568460152
2855.13267	0.0566332415
2853.70296	0.0563899763
2852.27325	0.0560968854
2850.84354	0.0557272919
2849.41383	0.0552645735
2847.98411	0.0547206253
2846.55440	0.0541395620
2845.12469	0.0535824038
2843.69498	0.0530991778
2842.26527	0.0527085699
2840.83556	0.0523955524
2839.40585	0.0521264784
2837.97614	0.0518691242
2836.54643	0.0516044311
2835.11672	0.0513290018
2833.68701	0.0510502830
2832.25729	0.0507811420
2830.82758	0.0505348220
2829.39787	0.0503200889
2827.96816	0.0501379967
2826.53845	0.0499809906
2825.10874	0.0498373099
2823.67903	0.0496950373
2822.24932	0.0495461971
2820.81961	0.0493875481
2819.38990	0.0492210127
2817.96019	0.0490543395
2816.53047	0.0489001572
2815.10076	0.0487706177
2813.67105	0.0486692004
2812.24134	0.0485850051
2810.81163	0.0484958775
2809.38192	0.0483810157
2807.95221	0.0482340716
2806.52250	0.0480685830
2805.09279	0.0479103588
2803.66308	0.0477830507
2802.23337	0.0476932786
2800.80366	0.0476288833
2799.37394	0.0475668684
2797.94423	0.0474882312
2796.51452	0.0473881550
2795.08481	0.0472744182
2793.65510	0.0471570790
2792.22539	0.0470367409
2790.79568	0.0469036922
2789.36597	0.0467451960
2787.93626	0.0465571061
2786.50655	0.0463485643
2785.07684	0.0461377613
2783.64712	0.0459445529
2782.21741	0.0457848832
2780.78770	0.0456678607
2779.35799	0.0455934741
2777.92828	0.0455489121
2776.49857	0.0455099307
2775.06886	0.0454494543
2773.63915	0.0453497581
2772.20944	0.0452085212
2770.77973	0.0450372919
2769.35002	0.0448520072
2767.92030	0.0446679220
2766.49059	0.0444982499
2765.06088	0.0443543345
2763.63117	0.0442423671
2762.20146	0.0441575088
2760.77175	0.0440835245
2759.34204	0.0440009013
2757.91233	0.0438981578
2756.48262	0.0437781177
2755.05291	0.0436545052
2753.62320	0.0435409434
2752.19348	0.0434413143
2750.76377	0.0433485471
2749.33406	0.0432504751
2747.90435	0.0431400500
2746.47464	0.0430198498
2745.04493	0.0428997092
2743.61522	0.0427867733
2742.18551	0.0426787771
2740.75580	0.0425645560
2739.32609	0.0424324386
2737.89638	0.0422802493
2736.46666	0.0421178713
2735.03695	0.0419618525
2733.60724	0.0418259017
2732.17753	0.0417135842
2730.74782	0.0416189060
2729.31811	0.0415301397
2727.88840	0.0414376929
2726.45869	0.0413374640
2725.02898	0.0412314795
2723.59927	0.0411246680
2722.16956	0.0410198160
2720.73984	0.0409153029
2719.31013	0.0408056676
2717.88042	0.0406863652
2716.45071	0.0405577198
2715.02100	0.0404251590
2713.59129	0.0402960517
2712.16158	0.0401748158
2710.73187	0.0400611088
2709.30216	0.0399507545
2707.87245	0.0398394614
2706.44274	0.0397252180
2705.01302	0.0396100692
2703.58331	0.0394985527
2702.15360	0.0393952541
2700.72389	0.0393029489
2699.29418	0.0392209738
2697.86447	0.0391453058
2696.43476	0.0390705280
2695.00505	0.0389925875
2693.57534	0.0389110707
2692.14563	0.0388294533
2690.71592	0.0387514457
2689.28620	0.0386789441
2687.85649	0.0386112034
2686.42678	0.0385468453
2684.99707	0.0384858027
2683.56736	0.0384288691
2682.13765	0.0383734405
2680.70794	0.0383121110
2679.27823	0.0382366553
2677.84852	0.0381448492
2676.41881	0.0380448140
2674.98910	0.0379502214
2673.55938	0.0378698893
2672.12967	0.0378007218
2670.69996	0.0377298743
2669.27025	0.0376459956
2667.84054	0.0375491194
2666.41083	0.0374511406
2664.98112	0.0373671427
2663.55141	0.0373039842
2662.12170	0.0372549333
2660.69199	0.0372042246
2659.26228	0.0371375605
2657.83256	0.0370524414
2656.40285	0.0369600691
2654.97314	0.0368780009
2653.54343	0.0368169658
2652.11372	0.0367728174
2650.68401	0.0367296860
2649.25430	0.0366730392
2647.82459	0.0366014726
2646.39488	0.0365271866
2644.96517	0.0364658087
2643.53546	0.0364243127
2642.10575	0.0363978520
2640.67603	0.0363764875
2639.24632	0.0363544486
2637.81661	0.0363322981
2636.38690	0.0363137797
2634.95719	0.0362985544
2633.52748	0.0362813585
2632.09777	0.0362550206
2630.66806	0.0362160467
2629.23835	0.0361663327
2627.80864	0.0361110792
2626.37893	0.0360541493
2624.94921	0.0359965488
2623.51950	0.0359367356
2622.08979	0.0358749069
2620.66008	0.0358135365
2619.23037	0.0357559100
2617.80066	0.0357045345
2616.37095	0.0356599912
2614.94124	0.0356230959
2613.51153	0.0355948843
2612.08182	0.0355765112
2610.65211	0.0355656669
2609.22239	0.0355574042
2607.79268	0.0355469286
2606.36297	0.0355334990
2604.93326	0.0355212502
2603.50355	0.0355163328
2602.07384	0.0355223753
2600.64413	0.0355373174
2599.21442	0.0355540067
2597.78471	0.0355629958
2596.35500	0.0355581641
2594.92529	0.0355396233
2593.49557	0.0355143957
2592.06586	0.0354920365
2590.63615	0.0354788043
2589.20644	0.0354759395
2587.77673	0.0354815871
2586.34702	0.0354940556
2584.91731	0.0355138630
2583.48760	0.0355418436
2582.05789	0.0355775207
2580.62818	0.0356185995
2579.19847	0.0356612839
2577.76875	0.0357014984
2576.33904	0.0357355066
2574.90933	0.0357615873
2573.47962	0.0357820243
2572.04991	0.0358024016
2570.62020	0.0358279012
2569.19049	0.0358601175
2567.76078	0.0358958803
2566.33107	0.0359308869
2564.90136	0.0359632820
2563.47165	0.0359948911
2562.04193	0.0360295959
2560.61222	0.0360715576
2559.18251	0.0361235142
2557.75280	0.0361847058
2556.32309	0.0362495594
2554.89338	0.0363095291
2553.46367	0.0363590345
2552.03396	0.0364001878
2550.60425	0.0364409797
2549.17454	0.0364890061
2547.74483	0.0365447588
2546.31511	0.0366016403
2544.88540	0.0366535187
2543.45569	0.0367012918
2542.02598	0.0367531516
2540.59627	0.0368184336
2539.16656	0.0369007997
2537.73685	0.0369953588
2536.30714	0.0370913185
2534.87743	0.0371770673
2533.44772	0.0372466668
2532.01801	0.0373017825
2530.58829	0.0373509228
2529.15858	0.0374037661
2527.72887	0.0374656990
2526.29916	0.0375362523
2524.86945	0.0376109630
2523.43974	0.0376866497
2522.01003	0.0377616398
2520.58032	0.0378360823
2519.15061	0.0379093178
2517.72090	0.0379817523
2516.29119	0.0380558334
2514.86147	0.0381354690
2513.43176	0.0382234007
2512.00205	0.0383181609
2510.57234	0.0384134836
2509.14263	0.0385015272
2507.71292	0.0385760963
2506.28321	0.0386365838
2504.85350	0.0386895277
2503.42379	0.0387453623
2501.99408	0.0388128944
2500.56437	0.0388942547
2499.13465	0.0389834978
2497.70494	0.0390715450
2496.27523	0.0391526967
2494.84552	0.0392279439
2493.41581	0.0393021815
2491.98610	0.0393782184
2490.55639	0.0394531377
2489.12668	0.0395204127
2487.69697	0.0395760126
2486.26726	0.0396227166
2484.83755	0.0396708734
2483.40784	0.0397337824
2481.97812	0.0398193747
2480.54841	0.0399260633
2479.11870	0.0400424600
2477.68899	0.0401536338
2476.25928	0.0402485915
2474.82957	0.0403233469
2473.39986	0.0403801575
2471.97015	0.0404256433
2470.54044	0.0404686294
2469.11073	0.0405195244
2467.68102	0.0405865945
2466.25130	0.0406706743
2464.82159	0.0407629870
2463.39188	0.0408488922
2461.96217	0.0409174934
2460.53246	0.0409690365
2459.10275	0.0410148650
2457.67304	0.0410695225
2456.24333	0.0411417410
2454.81362	0.0412296578
2453.38391	0.0413233154
2451.95420	0.0414108112
2450.52448	0.0414844826
2449.09477	0.0415438116
2447.66506	0.0415941477
2446.23535	0.0416426957
2444.80564	0.0416935831
2443.37593	0.0417443886
2441.94622	0.0417883061
2440.51651	0.0418182909
2439.08680	0.0418334827
2437.65709	0.0418414623
2436.22738	0.0418551452
2434.79766	0.0418853909
2433.36795	0.0419347957
2431.93824	0.0419962406
2430.50853	0.0420586616
2429.07882	0.0421135910
2427.64911	0.0421598293
2426.21940	0.0422009341
2424.78969	0.0422405601
2423.35998	0.0422792211
2421.93027	0.0423148014
2420.50056	0.0423464216
2419.07084	0.0423754156
2417.64113	0.0424048975
2416.21142	0.0424364060
2414.78171	0.0424695760
2413.35200	0.0425028615
2411.92229	0.0425365753
2410.49258	0.0425734371
2409.06287	0.0426165797
2407.63316	0.0426666103
2406.20345	0.0427185334
2404.77374	0.0427630916
2403.34402	0.0427915156
2401.91431	0.0428013988
2400.48460	0.0427997410
2399.05489	0.0427989140
2397.62518	0.0428100564
2396.19547	0.0428365953
2394.76576	0.0428736806
2393.33605	0.0429127961
2391.90634	0.0429475717
2390.47663	0.0429755785
2389.04692	0.0429971255
2387.61720	0.0430113599
2386.18749	0.0430151895
2384.75778	0.0430036150
2383.32807	0.0429718904
2381.89836	0.0429171398
2380.46865	0.0428383946
2379.03894	0.0427375548
2377.60923	0.0426181518
2376.17952	0.0424833335
2374.74981	0.0423313230
2373.32010	0.0421524383
2371.89038	0.0419331156
2370.46067	0.0416671969
2369.03096	0.0413677022
2367.60125	0.0410664193
2366.17154	0.0408002660
2364.74183	0.0405951217
2363.31212	0.0404658169
2361.88241	0.0404260121
2360.45270	0.0404911339
2359.02299	0.0406651013
2357.59328	0.0409261696
2356.16356	0.0412296876
2354.73385	0.0415252708
2353.30414	0.0417730883
2351.87443	0.0419512466
2350.44472	0.0420513898
2349.01501	0.0420732051
2347.58530	0.0420233011
2346.15559	0.0419169478
2344.72588	0.0417836607
2343.29617	0.0416644327
2341.86646	0.0415959135
2340.43674	0.0415907018
2339.00703	0.0416335203
2337.57732	0.0416979119
2336.14761	0.0417625159
2334.71790	0.0418201424
2333.28819	0.0418766961
2331.85848	0.0419427790
2330.42877	0.0420221873
2328.99906	0.0421070606
2327.56935	0.0421831608
2326.13964	0.0422413610
2324.70993	0.0422828719
2323.28021	0.0423177145
2321.85050	0.0423577502
2320.42079	0.0424121171
2318.99108	0.0424835645
2317.56137	0.0425681807
2316.13166	0.0426575877
2314.70195	0.0427412391
2313.27224	0.0428125411
2311.84253	0.0428717062
2310.41282	0.0429250263
2308.98311	0.0429809801
2307.55339	0.0430429727
2306.12368	0.0431082025
2304.69397	0.0431685820
2303.26426	0.0432167910
2301.83455	0.0432504751
2300.40484	0.0432737246
2298.97513	0.0432940014
2297.54542	0.0433174856
2296.11571	0.0433461443
2294.68600	0.0433778092
2293.25629	0.0434088148
2291.82657	0.0434365645
2290.39686	0.0434593111
2288.96715	0.0434763357
2287.53744	0.0434864648
2286.10773	0.0434899256
2284.67802	0.0434883796
2283.24831	0.0434856042
2281.81860	0.0434853472
2280.38889	0.0434889793
2278.95918	0.0434945598
2277.52947	0.0434976779
2276.09975	0.0434961058
2274.67004	0.0434926450
2273.24033	0.0434943587
2271.81062	0.0435071774
2270.38091	0.0435300693
2268.95120	0.0435545072
2267.52149	0.0435695313
2266.09178	0.0435695313
2264.66207	0.0435577706
2263.23236	0.0435435772
2261.80265	0.0435362235
2260.37293	0.0435394831
2258.94322	0.0435515046
2257.51351	0.0435678735
2256.08380	0.0435851589
2254.65409	0.0436023585
2253.22438	0.0436192714
2251.79467	0.0436353013
2250.36496	0.0436485223
2248.93525	0.0436573960
2247.50554	0.0436623506
2246.07583	0.0436663851
2244.64611	0.0436731130
2243.21640	0.0436844490
2241.78669	0.0436991602
2240.35698	0.0437126458
2238.92727	0.0437184535
2237.49756	0.0437123589
2236.06785	0.0436957814
2234.63814	0.0436773486
2233.20843	0.0436688475
2231.77872	0.0436776355
2230.34901	0.0437011942
2228.91929	0.0437280163
2227.48958	0.0437452793
2226.05987	0.0437484309
2224.63016	0.0437422171
2223.20045	0.0437354334
2221.77074	0.0437331125
2220.34103	0.0437329113
2218.91132	0.0437289625
2217.48161	0.0437173657
2216.05190	0.0437002480
2214.62219	0.0436835326
2213.19247	0.0436728522
2211.76276	0.0436699055
2210.33305	0.0436722226
2208.90334	0.0436753444
2207.47363	0.0436766036
2206.04392	0.0436772332
2204.61421	0.0436817855
2203.18450	0.0436946936
2201.75479	0.0437171385
2200.32508	0.0437461659
2198.89537	0.0437774025
2197.46565	0.0438067243
2196.03594	0.0438312888
2194.60623	0.0438477546
2193.17652	0.0438520499
2191.74681	0.0438409708
2190.31710	0.0438162275
2188.88739	0.0437857620
2187.45768	0.0437605679
2186.02797	0.0437489450
2184.59826	0.0437513478
2183.16855	0.0437601656
2181.73883	0.0437644608
2180.30912	0.0437554717
2178.87941	0.0437312238
2177.44970	0.0436979011
2176.01999	0.0436665267
2174.59028	0.0436480939
2173.16057	0.0436481237
2171.73086	0.0436640084
2170.30115	0.0436871946
2168.87144	0.0437080339
2167.44173	0.0437218621
2166.01202	0.0437291339
2164.58230	0.0437328555
2163.15259	0.0437351465
2161.72288	0.0437360890
2160.29317	0.0437356606
2158.86346	0.0437348895
2157.43375	0.0437352881
2156.00404	0.0437374078
2154.57433	0.0437409841
2153.14462	0.0437450781
2151.71491	0.0437489748
2150.28520	0.0437517203
2148.85548	0.0437519215
2147.42577	0.0437492318
2145.99606	0.0437443629
2144.56635	0.0437390395
2143.13664	0.0437338874
2141.70693	0.0437267274
2140.27722	0.0437142476
2138.84751	0.0436945520
2137.41780	0.0436695926
2135.98809	0.0436458327
2134.55838	0.0436314642
2133.12866	0.0436322950
2131.69895	0.0436488949
2130.26924	0.0436755456
2128.83953	0.0437025689
2127.40982	0.0437208302
2125.98011	0.0437251814
2124.55040	0.0437155068
2123.12069	0.0436954387
2121.69098	0.0436703339
2120.26127	0.0436460637
2118.83156	0.0436278582
2117.40184	0.0436195880
2115.97213	0.0436225906
2114.54242	0.0436347276
2113.11271	0.0436523594
2111.68300	0.0436720513
2110.25329	0.0436923765
2108.82358	0.0437134169
2107.39387	0.0437350012
2105.96416	0.0437556170
2104.53445	0.0437729955
2103.10474	0.0437856503
2101.67502	0.0437949561
2100.24531	0.0438052341
2098.81560	0.0438204110
2097.38589	0.0438409410
2095.95618	0.0438626185
2094.52647	0.0438786559
2093.09676	0.0438850410
2091.66705	0.0438831523
2090.23734	0.0438781120
2088.80763	0.0438751057
2087.37792	0.0438757353
2085.94820	0.0438781977
2084.51849	0.0438800603
2083.08878	0.0438799709
2081.65907	0.0438783690
2080.22936	0.0438761078
2078.79965	0.0438746735
2077.36994	0.0438768789
2075.94023	0.0438869335
2074.51052	0.0439068079
2073.08081	0.0439331569
2071.65110	0.0439568721
2070.22138	0.0439675003
2068.79167	0.0439606234
2067.36196	0.0439420938
2065.93225	0.0439245664
2064.50254	0.0439199544
2063.07283	0.0439311825
2061.64312	0.0439504273
2060.21341	0.0439654104
2058.78370	0.0439670980
2057.35399	0.0439556688
2055.92428	0.0439394563
2054.49456	0.0439292043
2053.06485	0.0439317264
2051.63514	0.0439475626
2050.20543	0.0439724252
2048.77572	0.0440012738
2047.34601	0.0440302901
2045.91630	0.0440575369
2044.48659	0.0440813154
2043.05688	0.0441001132
2041.62717	0.0441138931
2040.19746	0.0441246107
2038.76774	0.0441363305
2037.33803	0.0441533811
2035.90832	0.0441785716
2034.47861	0.0442112125
2033.04890	0.0442457795
2031.61919	0.0442728922
2030.18948	0.0442844443
2028.75977	0.0442784540
2027.33006	0.0442619734
2025.90035	0.0442462377
2024.47064	0.0442396142
2023.04092	0.0442425981
2021.61121	0.0442491882
2020.18150	0.0442529134
2018.75179	0.0442521423
2017.32208	0.0442508496
2015.89237	0.0442560986
2014.46266	0.0442736670
2013.03295	0.0443059169
2011.60324	0.0443506092
2010.17353	0.0444027595
2008.74382	0.0444562957
2007.31411	0.0445067398
2005.88439	0.0445527434
2004.45468	0.0445964299
2003.02497	0.0446411520
2001.59526	0.0446896963
2000.16555	0.0447420888
1998.73584	0.0447940603
1997.30613	0.0448390059
1995.87642	0.0448712371
1994.44671	0.0448903255
1993.01700	0.0449018925
1991.58729	0.0449149534
1990.15757	0.0449365154
1988.72786	0.0449689850
1987.29815	0.0450107604
1985.86844	0.0450596884
1984.43873	0.0451145954
1983.00902	0.0451741070
1981.57931	0.0452351794
1980.14960	0.0452926680
1978.71989	0.0453411676
1977.29018	0.0453782938
1975.86047	0.0454070605
1974.43075	0.0454345644
1973.00104	0.0454676487
1971.57133	0.0455099009
1970.14162	0.0455602109
1968.71191	0.0456160456
1967.28220	0.0456765741
1965.85249	0.0457436107
1964.42278	0.0458192602
1962.99307	0.0459029488
1961.56336	0.0459899344
1960.13365	0.0460723303
1958.70393	0.0461416170
1957.27422	0.0461926609
1955.84451	0.0462274142
1954.41480	0.0462550558
1952.98509	0.0462866463
1951.55538	0.0463277698
1950.12567	0.0463748612
1948.69596	0.0464188755
1947.26625	0.0464535281
1945.83654	0.0464814752
1944.40683	0.0465136580
1942.97711	0.0465631858
1941.54740	0.0466369316
1940.11769	0.0467304364
1938.68798	0.0468308218
1937.25827	0.0469241962
1935.82856	0.0470038578
1934.39885	0.0470732935
1932.96914	0.0471415855
1931.53943	0.0472164974
1930.10972	0.0472986661
1928.68001	0.0473828129
1927.25029	0.0474637151
1925.82058	0.0475387089
1924.39087	0.0476079434
1922.96116	0.0476715229
1921.53145	0.0477302596
1920.10174	0.0477863997
1918.67203	0.0478436500
1917.24232	0.0479043163
1915.81261	0.0479684919
1914.38290	0.0480362885
1912.95319	0.0481098220
1911.52347	0.0481926799
1910.09376	0.0482872128
1908.66405	0.0483929962
1907.23434	0.0485073701
1905.80463	0.0486264080
1904.37492	0.0487437695
1902.94521	0.0488511398
1901.51550	0.0489414409
1900.08579	0.0490129255
1898.65608	0.0490706563
1897.22637	0.0491232313
1895.79665	0.0491782241
1894.36694	0.0492400341
1892.93723	0.0493115671
1891.50752	0.0493950881
1890.07781	0.0494927876
1888.64810	0.0496043749
1887.21839	0.0497261509
1885.78868	0.0498511009
1884.35897	0.0499700718
1882.92926	0.0500764363
1881.49955	0.0501702763
1880.06983	0.0502580926
1878.64012	0.0503481962
1877.21041	0.0504419468
1875.78070	0.0505313911
1874.35099	0.0506051704
1872.92128	0.0506578758
1871.49157	0.0506952591
1870.06186	0.0507340394
1868.63215	0.0507942662
1867.20244	0.0508882627
1865.77273	0.0510129333
1864.34301	0.0511540622
1862.91330	0.0512965210
1861.48359	0.0514325872
1860.05388	0.0515625440
1858.62417	0.0516902059
1857.19446	0.0518161580
1855.76475	0.0519353189
1854.33504	0.0520411432
1852.90533	0.0521314703
1851.47562	0.0522095524
1850.04591	0.0522804968
1848.61619	0.0523494110
1847.18648	0.0524215735
1845.75677	0.0525036827
1844.32706	0.0526008829
1842.89735	0.0527130105
1841.46764	0.0528359860
1840.03793	0.0529654250
1838.60822	0.0530975387
1837.17851	0.0532249808
1835.74880	0.0533374175
1834.31909	0.0534278080
1832.88938	0.0534996837
1831.45966	0.0535682030
1830.02995	0.0536521114
1828.60024	0.0537644513
1827.17053	0.0539084114
1825.74082	0.0540794246
1824.31111	0.0542676896
1822.88140	0.0544596463
1821.45169	0.0546417385
1820.02198	0.0548061654
1818.59227	0.0549518541
1817.16256	0.0550815463
1815.73284	0.0551958159
1814.30313	0.0552955903
1812.87342	0.0553870089
1811.44371	0.0554834455
1810.01400	0.0555981435
1808.58429	0.0557341799
1807.15458	0.0558832698
1805.72487	0.0560337082
1804.29516	0.0561780408
1802.86545	0.0563163832
1801.43574	0.0564536154
1800.00602	0.0565951988
1798.57631	0.0567420498
1797.14660	0.0568893626
1795.71689	0.0570326522
1794.28718	0.0571756363
1792.85747	0.0573335513
1791.42776	0.0575204864
1789.99805	0.0577310361
1788.56834	0.0579412431
1787.13863	0.0581278168
1785.70892	0.0582848378
1784.27920	0.0584247410
1782.84949	0.0585681796
1781.41978	0.0587315559
1779.99007	0.0589191802
1778.56036	0.0591242090
1777.13065	0.0593327470
1775.70094	0.0595314689
1774.27123	0.0597161166
1772.84152	0.0598994717
1771.41181	0.0601038076
1769.98210	0.0603385754
1768.55238	0.0605896600
1767.12267	0.0608369857
1765.69296	0.0610745326
1764.26325	0.0613112897
1762.83354	0.0615596846
1761.40383	0.0618263371
1759.97412	0.0621116124
1758.54441	0.0624149181
1757.11470	0.0627362877
1755.68499	0.0630751401
1754.25528	0.0634324998
1752.82556	0.0638161451
1751.39585	0.0642380118
1749.96614	0.0646965727
1748.53643	0.0651666597
1747.10672	0.0656145215
1745.67701	0.0660273135
1744.24730	0.0664169714
1742.81759	0.0668000355
1741.38788	0.0671823174
1739.95817	0.0675618276
1738.52846	0.0679447800
1737.09874	0.0683541894
1735.66903	0.0688208863
1734.23932	0.0693632662
1732.80961	0.0699705854
1731.37990	0.0706119761
1729.95019	0.0712630972
1728.52048	0.0719180107
1727.09077	0.0725801513
1725.66106	0.0732502341
1724.23135	0.0739237145
1722.80164	0.0745975897
1721.37192	0.0752876326
1719.94221	0.0760431886
1718.51250	0.0769372806
1717.08279	0.0779993013
1715.65308	0.0791446045
1714.22337	0.0802315623
1712.79366	0.0811946467
1711.36395	0.0820677727
1709.93424	0.0829210728
1708.50453	0.0838106796
1707.07482	0.0847655386
1705.64510	0.0858055428
1704.21539	0.0869708583
1702.78568	0.0883395448
1701.35597	0.0900089890
1699.92626	0.0920261964
1698.49655	0.0942972824
1697.06684	0.0965922400
1695.63713	0.0986962467
1694.20742	0.1005334556
1692.77771	0.1021405458
1691.34800	0.1035941020
1689.91828	0.1049781367
1688.48857	0.1063923314
1687.05886	0.1079615355
1685.62915	0.1097884476
1684.19944	0.1118296459
1682.76973	0.1138539389
1681.34002	0.1156496033
1679.91031	0.1172088087
1678.48060	0.1186605990
1677.05089	0.1201343611
1675.62118	0.1216949448
1674.19147	0.1233472526
1672.76175	0.1250809878
1671.33204	0.1268968731
1669.90233	0.1287795454
1668.47262	0.1306681335
1667.04291	0.1324944049
1665.61320	0.1342417598
1664.18349	0.1359335631
1662.75378	0.1375605613
1661.32407	0.1390369534
1659.89436	0.1402446479
1658.46465	0.1411028802
1657.03493	0.1415688246
1655.60522	0.1415857971
1654.17551	0.1410843134
1652.74580	0.1400974691
1651.31609	0.1388283223
1649.88638	0.1374713778
1648.45667	0.1360601038
1647.02696	0.1345734894
1645.59725	0.1330810785
1644.16754	0.1317181736
1642.73783	0.1305480897
1641.30811	0.1294950545
1639.87840	0.1283882558
1638.44869	0.1270395666
1637.01898	0.1253503412
1635.58927	0.1234262884
1634.15956	0.1215236187
1632.72985	0.1197992191
1631.30014	0.1181956679
1629.87043	0.1165446639
1628.44072	0.1146799698
1627.01101	0.1124981865
1625.58129	0.1100068912
1624.15158	0.1073397398
1622.72187	0.1046779379
1621.29216	0.1021250486
1619.86245	0.0996606350
1618.43274	0.0972128138
1617.00303	0.0947796777
1615.57332	0.0924819186
1614.14361	0.0904676989
1612.71390	0.0887788385
1611.28419	0.0873391628
1609.85447	0.0860477462
1608.42476	0.0848567933
1606.99505	0.0837808847
1605.56534	0.0828509852
1604.13563	0.0820689276
1602.70592	0.0814091563
1601.27621	0.0808474496
1599.84650	0.0803754106
1598.41679	0.0799884349
1596.98708	0.0796720535
1595.55737	0.0794095099
1594.12765	0.0791980624
1592.69794	0.0790523291
1591.26823	0.0789900720
1589.83852	0.0790189505
1588.40881	0.0791355371
1586.97910	0.0793295801
1585.54939	0.0795834586
1584.11968	0.0798718408
1582.68997	0.0801715255
1581.26026	0.0804776847
1579.83055	0.0808109343
1578.40083	0.0812053531
1576.97112	0.0816803500
1575.54141	0.0822185874
1574.11170	0.0827847347
1572.68199	0.0833684355
1571.25228	0.0839973688
1569.82257	0.0847036839
1568.39286	0.0854785591
1566.96315	0.0862642899
1565.53344	0.0870002359
1564.10373	0.0876755044
1562.67401	0.0883464590
1561.24430	0.0891300589
1559.81459	0.0901535302
1558.38488	0.0914135575
1556.95517	0.0926954150
1555.52546	0.0937846750
1554.09575	0.0946465582
1552.66604	0.0953297988
1551.23633	0.0958520398
1549.80662	0.0961850286
1548.37691	0.0962908342
1546.94719	0.0961524323
1545.51748	0.0957671925
1544.08777	0.0951186791
1542.65806	0.0941850767
1541.22835	0.0930312499
1539.79864	0.0918650925
1538.36893	0.0908675790
1536.93922	0.0900310874
1535.50951	0.0892410949
1534.07980	0.0884110555
1532.65009	0.0875287354
1531.22037	0.0866307318
1529.79066	0.0857500061
1528.36095	0.0848828852
1526.93124	0.0840001330
1525.50153	0.0830779448
1524.07182	0.0821209028
1522.64211	0.0811642855
1521.21240	0.0802544504
1519.78269	0.0794211924
1518.35298	0.0786584690
1516.92327	0.0779309645
1515.49356	0.0771957412
1514.06384	0.0764184520
1512.63413	0.0755636543
1511.20442	0.0745714307
1509.77471	0.0733564794
1508.34500	0.0718908533
1506.91529	0.0703536272
1505.48558	0.0690725222
1504.05587	0.0681904033
1502.62616	0.0675825402
1501.19645	0.0670655817
1499.76674	0.0665342659
1498.33702	0.0659810305
1496.90731	0.0654618740
1495.47760	0.0650255010
1494.04789	0.0646633431
1492.61818	0.0643300340
1491.18847	0.0639945269
1489.75876	0.0636731535
1488.32905	0.0634200945
1486.89934	0.0632818118
1485.46963	0.0632613599
1484.03992	0.0633280501
1482.61020	0.0634493083
1481.18049	0.0636062548
1479.75078	0.0637937188
1478.32107	0.0640166923
1476.89136	0.0642877147
1475.46165	0.0646243840
1474.03194	0.0650331378
1472.60223	0.0654837862
1471.17252	0.0659112781
1469.74281	0.0662578866
1468.31310	0.0665036440
1466.88338	0.0666610971
1465.45367	0.0667594597
1464.02396	0.0668312833
1462.59425	0.0669013932
1461.16454	0.0669834465
1459.73483	0.0670841858
1458.30512	0.0672041401
1456.87541	0.0673276559
1455.44570	0.0674218833
1454.01599	0.0674577430
1452.58628	0.0674263015
1451.15656	0.0673304051
1449.72685	0.0671762750
1448.29714	0.0669761077
1446.86743	0.0667512193
1445.43772	0.0665257871
1444.00801	0.0663108081
1442.57830	0.0660985038
1441.14859	0.0658695474
1439.71888	0.0656083226
1438.28917	0.0653170943
1436.85946	0.0650235191
1435.42974	0.0647705793
1434.00003	0.0645916387
1432.57032	0.0644995570
1431.14061	0.0644951090
1429.71090	0.0645751208
1428.28119	0.0647296235
1426.85148	0.0649375021
1425.42177	0.0651724041
1423.99206	0.0654168203
1422.56235	0.0656709149
1421.13264	0.0659497827
1419.70292	0.0662662685
1418.27321	0.0666129887
1416.84350	0.0669616759
1415.41379	0.0672853738
1413.98408	0.0675776154
1412.55437	0.0678493232
1411.12466	0.0681146905
1409.69495	0.0683800355
1408.26524	0.0686400011
1406.83553	0.0688806698
1405.40582	0.0690858439
1403.97610	0.0692420527
1402.54639	0.0693414658
1401.11668	0.0693838894
1399.68697	0.0693745688
1398.25726	0.0693216026
1396.82755	0.0692326725
1395.39784	0.0691143125
1393.96813	0.0689706281
1392.53842	0.0687995926
1391.10871	0.0685911924
1389.67900	0.0683313757
1388.24928	0.0680130124
1386.81957	0.0676485449
1385.38986	0.0672692060
1383.96015	0.0669066235
1382.53044	0.0665756911
1381.10073	0.0662735999
1379.67102	0.0659945607
1378.24131	0.0657420754
1376.81160	0.0655310377
1375.38189	0.0653798059
1373.95218	0.0652962178
1372.52246	0.0652686581
1371.09275	0.0652689338
1369.66304	0.0652655587
1368.23333	0.0652375817
1366.80362	0.0651814565
1365.37391	0.0651119202
1363.94420	0.0650540069
1362.51449	0.0650307611
1361.08478	0.0650518686
1359.65507	0.0651116222
1358.22536	0.0651972145
1356.79565	0.0652967915
1355.36593	0.0654005110
1353.93622	0.0654997677
1352.50651	0.0655881166
1351.07680	0.0656639636
1349.64709	0.0657306910
1348.21738	0.0657919496
1346.78767	0.0658466816
1345.35796	0.0658891648
1343.92825	0.0659156442
1342.49854	0.0659321547
1341.06883	0.0659595132
1339.63911	0.0660252646
1338.20940	0.0661467016
1336.77969	0.0663159937
1335.34998	0.0665050596
1333.92027	0.0666857511
1332.49056	0.0668483153
1331.06085	0.0670029297
1329.63114	0.0671680868
1328.20143	0.0673535913
1326.77172	0.0675526634
1325.34201	0.0677489489
1323.91229	0.0679306462
1322.48258	0.0681001842
1321.05287	0.0682711825
1319.62316	0.0684568286
1318.19345	0.0686600134
1316.76374	0.0688714832
1315.33403	0.0690784380
1313.90432	0.0692722946
1312.47461	0.0694530457
1311.04490	0.0696270391
1309.61519	0.0698018596
1308.18547	0.0699823499
1306.75576	0.0701693669
1305.32605	0.0703586191
1303.89634	0.0705420524
1302.46663	0.0707094148
1301.03692	0.0708518252
1299.60721	0.0709671751
1298.17750	0.0710626543
1296.74779	0.0711513236
1295.31808	0.0712452531
1293.88837	0.0713473558
1292.45865	0.0714495033
1291.02894	0.0715382844
1289.59923	0.0716060773
1288.16952	0.0716586784
1286.73981	0.0717137232
1285.31010	0.0717905834
1283.88039	0.0718988255
1282.45068	0.0720339864
1281.02097	0.0721819922
1279.59126	0.0723277330
1278.16155	0.0724614039
1276.73183	0.0725801513
1275.30212	0.0726877674
1273.87241	0.0727944896
1272.44270	0.0729160309
1271.01299	0.0730686858
1269.58328	0.0732639283
1268.15357	0.0735043287
1266.72386	0.0737855732
1265.29415	0.0741035268
1263.86444	0.0744590163
1262.43473	0.0748557374
1261.00501	0.0752928331
1259.57530	0.0757591277
1258.14559	0.0762324929
1256.71588	0.0766877830
1255.28617	0.0771049336
1253.85646	0.0774724558
1252.42675	0.0777851641
1250.99704	0.0780377463
1249.56733	0.0782215968
1248.13762	0.0783242658
1246.70791	0.0783352405
1245.27819	0.0782509521
1243.84848	0.0780790746
1242.41877	0.0778378695
1240.98906	0.0775526911
1239.55935	0.0772485286
1238.12964	0.0769434050
1236.69993	0.0766436830
1235.27022	0.0763450265
1233.84051	0.0760392696
1232.41080	0.0757218972
1230.98109	0.0753974617
1229.55137	0.0750775710
1228.12166	0.0747749507
1226.69195	0.0744961724
1225.26224	0.0742383897
1223.83253	0.0739906803
1222.40282	0.0737382323
1220.97311	0.0734697431
1219.54340	0.0731807128
1218.11369	0.0728754923
1216.68398	0.0725639984
1215.25427	0.0722576827
1213.82455	0.0719659105
1212.39484	0.0716956481
1210.96513	0.0714524984
1209.53542	0.0712416247
1208.10571	0.0710682645
1206.67600	0.0709355101
1205.24629	0.0708455145
1203.81658	0.0708006322
1202.38687	0.0708058402
1200.95716	0.0708674565
1199.52745	0.0709898248
1198.09774	0.0711712092
1196.66802	0.0714039505
1195.23831	0.0716800466
1193.80860	0.0719964057
1192.37889	0.0723566562
1190.94918	0.0727644041
1189.51947	0.0732165575
1188.08976	0.0737008378
1186.66005	0.0742009580
1185.23034	0.0747067481
1183.80063	0.0752198771
1182.37092	0.0757522881
1180.94120	0.0763179362
1179.51149	0.0769232810
1178.08178	0.0775631815
1176.65207	0.0782242268
1175.22236	0.0788935795
1173.79265	0.0795660168
1172.36294	0.0802448243
1170.93323	0.0809350759
1169.50352	0.0816358626
1168.07381	0.0823381245
1166.64410	0.0830322206
1165.21438	0.0837181956
1163.78467	0.0844096243
1162.35496	0.0851269364
1160.92525	0.0858832672
1159.49554	0.0866731405
1158.06583	0.0874738023
1156.63612	0.0882578269
1155.20641	0.0890097767
1153.77670	0.0897336230
1152.34699	0.0904485136
1150.91728	0.0911759734
1149.48756	0.0919318795
1148.05785	0.0927266628
1146.62814	0.0935713500
1145.19843	0.0944785625
1143.76872	0.0954556763
1142.33901	0.0964969024
1140.90930	0.0975854769
1139.47959	0.0987051800
1138.04988	0.0998528674
1136.62017	0.1010382473
1135.19046	0.1022726744
1133.76074	0.1035578921
1132.33103	0.1048841700
1130.90132	0.1062384397
1129.47161	0.1076121032
1128.04190	0.1090005711
1126.61219	0.1104001701
1125.18248	0.1118054017
1123.75277	0.1132116988
1122.32306	0.1146169007
1120.89335	0.1160194278
1119.46364	0.1174131706
1118.03392	0.1187827811
1116.60421	0.1201072931
1115.17450	0.1213683188
1113.74479	0.1225594431
1112.31508	0.1236917228
1110.88537	0.1247875169
1109.45566	0.1258649230
1108.02595	0.1269214898
1106.59624	0.1279301196
1105.16653	0.1288519800
1103.73682	0.1296578944
1102.30710	0.1303420365
1100.87739	0.1309206486
1099.44768	0.1314187795
1098.01797	0.1318584234
1096.58826	0.1322519034
1095.15855	0.1326010525
1093.72884	0.1328997910
1092.29913	0.1331381500
1090.86942	0.1333066225
1089.43971	0.1333974898
1088.01000	0.1334015727
1086.58028	0.1333043724
1085.15057	0.1330883205
1083.72086	0.1327409893
1082.29115	0.1322641224
1080.86144	0.1316736192
1079.43173	0.1309896857
1078.00202	0.1302261204
1076.57231	0.1293854117
1075.14260	0.1284630001
1073.71289	0.1274556816
1072.28318	0.1263665706
1070.85346	0.1252031326
1069.42375	0.1239724383
1067.99404	0.1226756498
1066.56433	0.1213066652
1065.13462	0.1198549569
1063.70491	0.1183117330
1062.27520	0.1166745797
1060.84549	0.1149481386
1059.41578	0.1131406873
1057.98607	0.1112589091
1056.55636	0.1093066111
1055.12664	0.1072888672
1053.69693	0.1052196994
1052.26722	0.1031259820
1050.83751	0.1010442972
1049.40780	0.0990111679
1047.97809	0.0970519856
1046.54838	0.0951761678
1045.11867	0.0933807269
1043.68896	0.0916578248
1042.25925	0.0900029317
1040.82954	0.0884163231
1039.39983	0.0869022384
1037.97011	0.0854656026
1036.54040	0.0841116533
1035.11069	0.0828445032
1033.68098	0.0816653892
1032.25127	0.0805702284
1030.82156	0.0795492008
1029.39185	0.0785925463
1027.96214	0.0776965544
1026.53243	0.0768639594
1025.10272	0.0760986730
1023.67301	0.0754010007
1022.24329	0.0747700557
1020.81358	0.0742137283
1019.38387	0.0737538487
1017.95416	0.0734214336
1016.52445	0.0732425749
1015.09474	0.0732263327
1013.66503	0.0733641759
1012.23532	0.0736380890
1010.80561	0.0740295723
1009.37590	0.0745255798
1007.94619	0.0751196370
1006.51647	0.0758106932
1005.08676	0.0765994564
1003.65705	0.0774821341
1002.22734	0.0784450918
1000.79763	0.0794632807
999.36792	0.0805027336
997.93821	0.0815259814
996.50850	0.0824950114
995.07879	0.0833726078
993.64908	0.0841238052
992.21937	0.0847170204
990.78965	0.0851272270
989.35994	0.0853393376
987.93023	0.0853516608
986.50052	0.0851776749
985.07081	0.0848432332
983.64110	0.0843776539
982.21139	0.0838012621
980.78168	0.0831175968
979.35197	0.0823167861
977.92226	0.0813891441
976.49255	0.0803396553
975.06283	0.0791924372
973.63312	0.0779829100
972.20341	0.0767444596
970.77370	0.0755003840
969.34399	0.0742672905
967.91428	0.0730627775
966.48457	0.0719086975
965.05486	0.0708251297
963.62515	0.0698243603
962.19544	0.0689088553
960.76573	0.0680790767
959.33601	0.0673400536
957.90630	0.0666994527
956.47659	0.0661584884
955.04688	0.0657047033
953.61717	0.0653168559
952.18746	0.0649749637
950.75775	0.0646695942
949.32804	0.0644017309
947.89833	0.0641759485
946.46862	0.0639961138
945.03891	0.0638628677
943.60919	0.0637726709
942.17948	0.0637152940
940.74977	0.0636736900
939.32006	0.0636274144
937.89035	0.0635604635
936.46064	0.0634663254
935.03093	0.0633471012
933.60122	0.0632086918
932.17151	0.0630561337
930.74180	0.0628917217
929.31209	0.0627160743
927.88237	0.0625297576
926.45266	0.0623350404
925.02295	0.0621375367
923.59324	0.0619454421
922.16353	0.0617653951
920.73382	0.0615963154
919.30411	0.0614270605
917.87440	0.0612400174
916.44469	0.0610209964
915.01498	0.0607689470
913.58527	0.0604981519
912.15555	0.0602324903
910.72584	0.0599948950
909.29613	0.0597999431
907.86642	0.0596538670
906.43671	0.0595591404
905.00700	0.0595172495
903.57729	0.0595285594
902.14758	0.0595899038
900.71787	0.0596953556
899.28816	0.0598423071
897.85845	0.0600343682
896.42873	0.0602791794
894.99902	0.0605808794
893.56931	0.0609331205
892.13960	0.0613185912
890.70989	0.0617132671
889.28018	0.0620922633
887.85047	0.0624374226
886.42076	0.0627434999
884.99105	0.0630225837
883.56134	0.0633010119
882.13163	0.0636082366
880.70192	0.0639606044
879.27220	0.0643507838
877.84249	0.0647488534
876.41278	0.0651140288
874.98307	0.0654134154
873.55336	0.0656360164
872.12365	0.0657968000
870.69394	0.0659261867
869.26423	0.0660499781
867.83452	0.0661721751
866.40481	0.0662721843
864.97510	0.0663188323
863.54538	0.0662905425
862.11567	0.0661873668
860.68596	0.0660249069
859.25625	0.0658203587
857.82654	0.0655787513
856.39683	0.0652905628
854.96712	0.0649395138
853.53741	0.0645152330
852.10770	0.0640247315
850.67799	0.0634959862
849.24828	0.0629699454
847.81856	0.0624828264
846.38885	0.0620500930
844.95914	0.0616621263
843.52943	0.0612934306
842.09972	0.0609199889
840.67001	0.0605308227
839.24030	0.0601269938
837.81059	0.0597142465
836.38088	0.0592966639
834.95117	0.0588769354
833.52146	0.0584609583
832.09174	0.0580593757
830.66203	0.0576824024
829.23232	0.0573318079
827.80261	0.0569974072
826.37290	0.0566644445
824.94319	0.0563254580
823.51348	0.0559894182
822.08377	0.0556793548
820.65406	0.0554181524
819.22435	0.0552139245
817.79464	0.0550547168
816.36492	0.0549142808
814.93521	0.0547669046
813.50550	0.0546002872
812.07579	0.0544220880
810.64608	0.0542536415
809.21637	0.0541171283
807.78666	0.0540228710
806.35695	0.0539653599
804.92724	0.0539295450
803.49753	0.0539021119
802.06782	0.0538759418
800.63810	0.0538478084
799.20839	0.0538126193
797.77868	0.0537623689
796.34897	0.0536930300
794.91926	0.0536116920
793.48955	0.0535366945
792.05984	0.0534891710
790.63013	0.0534799211
789.20042	0.0535024926
787.77071	0.0535360500
786.34100	0.0535588898
784.91128	0.0535632819
783.48157	0.0535599440
782.05186	0.0535691381
780.62215	0.0536029339
779.19244	0.0536537506
777.76273	0.0536975414
776.33302	0.0537104607
774.90331	0.0536845922
773.47360	0.0536329560
772.04389	0.0535817593
770.61418	0.0535584800
769.18446	0.0535813496
767.75475	0.0536550097
766.32504	0.0537691973
764.89533	0.0538999438
763.46562	0.0540134311
762.03591	0.0540767834
760.60620	0.0540720634
759.17649	0.0540082157
757.74678	0.0539211631
756.31707	0.0538562201
754.88736	0.0538427681
753.45764	0.0538770556
752.02793	0.0539256744
750.59822	0.0539488010
749.16851	0.0539222173
747.73880	0.0538443811
746.30909	0.0537286513
744.87938	0.0535956994
743.44967	0.0534712225
742.01996	0.0533850119
740.59025	0.0533632897
739.16054	0.0534161851
737.73082	0.0535349660
736.30111	0.0537017584
734.87140	0.0539015271
733.44169	0.0541239306
732.01198	0.0543548726
730.58227	0.0545734875
729.15256	0.0547580644
727.72285	0.0548951291
726.29314	0.0549830534
724.86343	0.0550278611
723.43372	0.0550441109
722.00401	0.0550568327
720.57429	0.0550963879
719.14458	0.0551822372
717.71487	0.0553072914
716.28516	0.0554443561
714.85545	0.0555697232
713.42574	0.0556840636
711.99603	0.0558083206
710.56632	0.0559619144
709.13661	0.0561441332
707.70690	0.0563350655
706.27719	0.0565091893
704.84747	0.0566483401
703.41776	0.0567444377
701.98805	0.0567955934
700.55834	0.0568033829
699.12863	0.0567730553
697.69892	0.0567146167
696.26921	0.0566406734
694.83950	0.0565638840
693.40979	0.0564920902
691.98008	0.0564264953
690.55037	0.0563626811
689.12065	0.0562969334
687.69094	0.0562313087
686.26123	0.0561747141
684.83152	0.0561374165
683.40181	0.0561236031
681.97210	0.0561296120
680.54239	0.0561455786
679.11268	0.0561566539
677.68297	0.0561442226
676.25326	0.0560912006
674.82355	0.0559933931
673.39383	0.0558681376
671.96412	0.0557559580
670.53441	0.0557115488
669.10470	0.0557744727
667.67499	0.0559234880
666.24528	0.0560745299
664.81557	0.0561527945
663.38586	0.0561439879
661.95615	0.0560770333
660.52644	0.0559910946
659.09673	0.0559160411
657.66701	0.0558618382
656.23730	0.0558209494
654.80759	0.0557817705
653.37788	0.0557411537
651.94817	0.0557027198
650.51846	0.0556657277
649.08875	0.0556212403
647.65904	0.0555610135
646.22933	0.0554891489
644.79962	0.0554207116
643.36991	0.0553668067
641.94019	0.0553197600
640.51048	0.0552519336
639.08077	0.0551317409
637.65106	0.0549437478
636.22135	0.0547017194
634.79164	0.0544421598
633.36193	0.0542027280
631.93222	0.0539953150
630.50251	0.0537928417
629.07280	0.0535380393
627.64309	0.0531685986
626.21337	0.0526490696
624.78366	0.0519933775
623.35395	0.0512691960
621.92424	0.0505752154
620.49453	0.0500023365
619.06482	0.0495973527
617.63511	0.0493472070
616.20540	0.0491930060
614.77569	0.0490653813
613.34598	0.0489205532
611.91627	0.0487559624
610.48655	0.0486009866
609.05684	0.0484956764
607.62713	0.0484699160
606.19742	0.0485303514
604.76771	0.0486536250
603.33800	0.0487961918
601.90829	0.0489208400
600.47858	0.0490242578
599.04887	0.0491380170
