3997.47168	0.0057412637
3996.04197	0.0057462472
3994.61226	0.0057532513
3993.18255	0.0057678358
3991.75284	0.0057872217
3990.32312	0.0058029359
3988.89341	0.0058100978
3987.46370	0.0058125639
3986.03399	0.0058161844
3984.60428	0.0058202771
3983.17457	0.0058151609
3981.74486	0.0057898453
3980.31515	0.0057426803
3978.88544	0.0056845048
3977.45573	0.0056315032
3976.02602	0.0055991178
3974.59630	0.0055964957
3973.16659	0.0056249998
3971.73688	0.0056777904
3970.30717	0.0057400572
3968.87746	0.0057953279
3967.44775	0.0058336570
3966.01804	0.0058529936
3964.58833	0.0058572963
3963.15862	0.0058498452
3961.72891	0.0058340244
3960.29920	0.0058182045
3958.86948	0.0058140852
3957.43977	0.0058297743
3956.01006	0.0058582411
3954.58035	0.0058789952
3953.15064	0.0058697332
3951.72093	0.0058239759
3950.29122	0.0057571335
3948.86151	0.0056978283
3947.43180	0.0056698439
3946.00209	0.0056786821
3944.57238	0.0057135653
3943.14266	0.0057571596
3941.71295	0.0057969806
3940.28324	0.0058286721
3938.85353	0.0058537805
3937.42382	0.0058765551
3935.99411	0.0058995406
3934.56440	0.0059233150
3933.13469	0.0059444136
3931.70498	0.0059551205
3930.27527	0.0059474837
3928.84556	0.0059226588
3927.41585	0.0058911177
3925.98613	0.0058680801
3924.55642	0.0058612847
3923.12671	0.0058654565
3921.69700	0.0058667157
3920.26729	0.0058556958
3918.83758	0.0058344705
3917.40787	0.0058117243
3915.97816	0.0057936753
3914.54845	0.0057806899
3913.11874	0.0057722693
3911.68903	0.0057738954
3910.25931	0.0057935966
3908.82960	0.0058339718
3907.39989	0.0058857389
3905.97018	0.0059293504
3904.54047	0.0059426026
3903.11076	0.0059165708
3901.68105	0.0058652726
3900.25134	0.0058183093
3898.82163	0.0058003911
3897.39192	0.0058167088
3895.96221	0.0058566406
3894.53249	0.0059045791
3893.10278	0.0059459354
3891.67307	0.0059709982
3890.24336	0.0059734387
3888.81365	0.0059502134
3887.38394	0.0059032142
3885.95423	0.0058438368
3884.52452	0.0057951445
3883.09481	0.0057825786
3881.66510	0.0058163153
3880.23539	0.0058830623
3878.80567	0.0059549892
3877.37596	0.0060073482
3875.94625	0.0060291332
3874.51654	0.0060219150
3873.08683	0.0059962459
3871.65712	0.0059671402
3870.22741	0.0059490846
3868.79770	0.0059485338
3867.36799	0.0059592407
3865.93828	0.0059713130
3864.50857	0.0059822309
3863.07885	0.0060007605
3861.64914	0.0060383203
3860.21943	0.0060941014
3858.78972	0.0061490498
3857.36001	0.0061703431
3855.93030	0.0061244234
3854.50059	0.0060083456
3853.07088	0.0058797826
3851.64117	0.0058211689
3850.21146	0.0058563519
3848.78175	0.0059495308
3847.35203	0.0060556969
3845.92232	0.0061474484
3844.49261	0.0062109376
3843.06290	0.0062388778
3841.63319	0.0062261154
3840.20348	0.0061705010
3838.77377	0.0060822885
3837.34406	0.0059883986
3835.91435	0.0059212944
3834.48464	0.0059004854
3833.05493	0.0059259129
3831.62521	0.0059860889
3830.19550	0.0060674567
3828.76579	0.0061575039
3827.33608	0.0062441039
3825.90637	0.0063111791
3824.47666	0.0063410695
3823.04695	0.0063195839
3821.61724	0.0062485416
3820.18753	0.0061524105
3818.75782	0.0060718670
3817.32811	0.0060401312
3815.89839	0.0060668793
3814.46868	0.0061389683
3813.03897	0.0062325755
3811.60926	0.0063242330
3810.17955	0.0063968110
3808.74984	0.0064430488
3807.32013	0.0064674043
3805.89042	0.0064842729
3804.46071	0.0065070544
3803.03100	0.0065350924
3801.60129	0.0065521477
3800.17157	0.0065405583
3798.74186	0.0064985934
3797.31215	0.0064426810
3795.88244	0.0063960757
3794.45273	0.0063757431
3793.02302	0.0063855676
3791.59331	0.0064165406
3790.16360	0.0064504580
3788.73389	0.0064700055
3787.30418	0.0064687445
3785.87447	0.0064566061
3784.44475	0.0064555025
3783.01504	0.0064844568
3781.58533	0.0065473909
3780.15562	0.0066312295
3778.72591	0.0067127449
3777.29620	0.0067729773
3775.86649	0.0068017426
3774.43678	0.0067979563
3773.00707	0.0067640641
3771.57736	0.0067062513
3770.14765	0.0066380636
3768.71794	0.0065815817
3767.28822	0.0065603466
3765.85851	0.0065848930
3764.42880	0.0066446871
3762.99909	0.0067132181
3761.56938	0.0067620398
3760.13967	0.0067782099
3758.70996	0.0067734243
3757.28025	0.0067719258
3755.85054	0.0067862817
3754.42083	0.0068028471
3752.99112	0.0067901998
3751.56140	0.0067297281
3750.13169	0.0066415332
3748.70198	0.0065746959
3747.27227	0.0065648933
3745.84256	0.0066099134
3744.41285	0.0066824080
3742.98314	0.0067582275
3741.55343	0.0068284590
3740.12372	0.0068927314
3738.69401	0.0069480441
3737.26430	0.0069860807
3735.83458	0.0070009963
3734.40487	0.0070019434
3732.97516	0.0070125978
3731.54545	0.0070514553
3730.11574	0.0071157874
3728.68603	0.0071893926
3727.25632	0.0072542713
3725.82661	0.0072993105
3724.39690	0.0073250835
3722.96719	0.0073430645
3721.53748	0.0073698140
3720.10776	0.0074190521
3718.67805	0.0074960007
3717.24834	0.0075945109
3715.81863	0.0076961792
3714.38892	0.0077709369
3712.95921	0.0077890158
3711.52950	0.0077435044
3710.09979	0.0076686982
3708.67008	0.0076175090
3707.24037	0.0076172454
3705.81066	0.0076608998
3704.38094	0.0077244788
3702.95123	0.0077850628
3701.52152	0.0078301039
3700.09181	0.0078628939
3698.66210	0.0078972140
3697.23239	0.0079462221
3695.80268	0.0080104498
3694.37297	0.0080756620
3692.94326	0.0081181759
3691.51355	0.0081185447
3690.08384	0.0080813579
3688.65412	0.0080413800
3687.22441	0.0080388226
3685.79470	0.0080893496
3684.36499	0.0081812153
3682.93528	0.0082926508
3681.50557	0.0084025050
3680.07586	0.0084936190
3678.64615	0.0085580330
3677.21644	0.0086039994
3675.78673	0.0086541176
3674.35702	0.0087276930
3672.92730	0.0088237887
3671.49759	0.0089286249
3670.06788	0.0090370551
3668.63817	0.0091579901
3667.20846	0.0093028136
3665.77875	0.0094704898
3664.34904	0.0096470974
3662.91933	0.0098145362
3661.48962	0.0099575119
3660.05991	0.0100700939
3658.63020	0.0101586161
3657.20048	0.0102396300
3655.77077	0.0103301499
3654.34106	0.0104343956
3652.91135	0.0105375797
3651.48164	0.0106129870
3650.05193	0.0106438650
3648.62222	0.0106508154
3647.19251	0.0106862327
3645.76280	0.0107860267
3644.33309	0.0109457821
3642.90338	0.0111372517
3641.47366	0.0113301883
3640.04395	0.0115022641
3638.61424	0.0116428994
3637.18453	0.0117559712
3635.75482	0.0118540693
3634.32511	0.0119480388
3632.89540	0.0120386751
3631.46569	0.0121190827
3630.03598	0.0121861659
3628.60627	0.0122566419
3627.17656	0.0123558389
3625.74684	0.0124913948
3624.31713	0.0126429573
3622.88742	0.0127786305
3621.45771	0.0128739998
3620.02800	0.0129279196
3618.59829	0.0129676303
3617.16858	0.0130306575
3615.73887	0.0131328860
3614.30916	0.0132569689
3612.87945	0.0133688068
3611.44974	0.0134420916
3610.02003	0.0134760821
3608.59031	0.0134957880
3607.16060	0.0135330670
3605.73089	0.0136041092
3604.30118	0.0137032401
3602.87147	0.0138104903
3601.44176	0.0139090000
3600.01205	0.0139927212
3598.58234	0.0140682505
3597.15263	0.0141458251
3595.72292	0.0142297791
3594.29321	0.0143157030
3592.86349	0.0143928137
3591.43378	0.0144500267
3590.00407	0.0144811245
3588.57436	0.0144891273
3587.14465	0.0144921243
3585.71494	0.0145149287
3584.28523	0.0145723447
3582.85552	0.0146593535
3581.42581	0.0147590470
3579.99610	0.0148552544
3578.56639	0.0149425613
3577.13667	0.0150253298
3575.70696	0.0151113840
3574.27725	0.0152028175
3572.84754	0.0152937602
3571.41783	0.0153731089
3569.98812	0.0154270986
3568.55841	0.0154465716
3567.12870	0.0154348500
3565.69899	0.0154120252
3564.26928	0.0154026914
3562.83957	0.0154185155
3561.40985	0.0154551556
3559.98014	0.0155022340
3558.55043	0.0155525906
3557.12072	0.0156045360
3555.69101	0.0156580433
3554.26130	0.0157121494
3552.83159	0.0157665294
3551.40188	0.0158242732
3549.97217	0.0158904810
3548.54246	0.0159655623
3547.11275	0.0160413273
3545.68303	0.0161064137
3544.25332	0.0161565188
3542.82361	0.0161981657
3541.39390	0.0162426624
3539.96419	0.0162971094
3538.53448	0.0163605679
3537.10477	0.0164297093
3535.67506	0.0165013336
3534.24535	0.0165740997
3532.81564	0.0166458841
3531.38593	0.0167124588
3529.95621	0.0167682301
3528.52650	0.0168083198
3527.09679	0.0168294702
3525.66708	0.0168329943
3524.23737	0.0168262403
3522.80766	0.0168219618
3521.37795	0.0168336686
3519.94824	0.0168675203
3518.51853	0.0169193000
3517.08882	0.0169771165
3515.65911	0.0170285869
3514.22939	0.0170671660
3512.79968	0.0170934182
3511.36997	0.0171124265
3509.94026	0.0171313845
3508.51055	0.0171550531
3507.08084	0.0171826035
3505.65113	0.0172069762
3504.22142	0.0172175597
3502.79171	0.0172078367
3501.36200	0.0171816070
3499.93229	0.0171532761
3498.50257	0.0171408895
3497.07286	0.0171563998
3495.64315	0.0171998926
3494.21344	0.0172597114
3492.78373	0.0173182469
3491.35402	0.0173606779
3489.92431	0.0173810460
3488.49460	0.0173823666
3487.06489	0.0173724517
3485.63518	0.0173587650
3484.20547	0.0173472613
3482.77575	0.0173446480
3481.34604	0.0173578486
3479.91633	0.0173914731
3478.48662	0.0174398944
3477.05691	0.0174874309
3475.62720	0.0175164025
3474.19749	0.0175185576
3472.76778	0.0175010674
3471.33807	0.0174809620
3469.90836	0.0174733084
3468.47865	0.0174822826
3467.04893	0.0175014436
3465.61922	0.0175203364
3464.18951	0.0175310373
3462.75980	0.0175316557
3461.33009	0.0175241902
3459.90038	0.0175120905
3458.47067	0.0174998268
3457.04096	0.0174917951
3455.61125	0.0174913108
3454.18154	0.0174989644
3452.75183	0.0175116584
3451.32212	0.0175240301
3449.89240	0.0175323039
3448.46269	0.0175372362
3447.03298	0.0175421145
3445.60327	0.0175494459
3444.17356	0.0175559688
3442.74385	0.0175536778
3441.31414	0.0175330304
3439.88443	0.0174893159
3438.45472	0.0174263399
3437.02501	0.0173554234
3435.59530	0.0172916595
3434.16558	0.0172481835
3432.73587	0.0172285493
3431.30616	0.0172256399
3429.87645	0.0172255058
3428.44674	0.0172172375
3427.01703	0.0171995964
3425.58732	0.0171802063
3424.15761	0.0171675216
3422.72790	0.0171631593
3421.29819	0.0171620287
3419.86848	0.0171569381
3418.43876	0.0171450358
3417.00905	0.0171281788
3415.57934	0.0171093307
3414.14963	0.0170884095
3412.71992	0.0170602463
3411.29021	0.0170174148
3409.86050	0.0169539135
3408.43079	0.0168704279
3407.00108	0.0167781040
3405.57137	0.0166959967
3404.14166	0.0166429784
3402.71194	0.0166270547
3401.28223	0.0166411232
3399.85252	0.0166671593
3398.42281	0.0166858546
3396.99310	0.0166842937
3395.56339	0.0166597627
3394.13368	0.0166180730
3392.70397	0.0165686943
3391.27426	0.0165202636
3389.84455	0.0164764896
3388.41484	0.0164364837
3386.98512	0.0163955670
3385.55541	0.0163500328
3384.12570	0.0162990447
3382.69599	0.0162454043
3381.26628	0.0161937047
3379.83657	0.0161480550
3378.40686	0.0161089674
3376.97715	0.0160730500
3375.54744	0.0160346124
3374.11773	0.0159898680
3372.68802	0.0159412585
3371.25830	0.0158967655
3369.82859	0.0158648938
3368.39888	0.0158486497
3366.96917	0.0158429593
3365.53946	0.0158380177
3364.10975	0.0158234946
3362.68004	0.0157915205
3361.25033	0.0157382656
3359.82062	0.0156656653
3358.39091	0.0155830700
3356.96120	0.0155067137
3355.53148	0.0154524734
3354.10177	0.0154269375
3352.67206	0.0154219493
3351.24235	0.0154173356
3349.81264	0.0153924190
3348.38293	0.0153379515
3346.95322	0.0152605930
3345.52351	0.0151786907
3344.09380	0.0151104731
3342.66409	0.0150646698
3341.23438	0.0150364507
3339.80466	0.0150144501
3338.37495	0.0149896909
3336.94524	0.0149608068
3335.51553	0.0149324341
3334.08582	0.0149081349
3332.65611	0.0148850689
3331.22640	0.0148541294
3329.79669	0.0148054073
3328.36698	0.0147357751
3326.93727	0.0146529274
3325.50756	0.0145728802
3324.07784	0.0145121980
3322.64813	0.0144780204
3321.21842	0.0144645581
3319.78871	0.0144571178
3318.35900	0.0144423991
3316.92929	0.0144166024
3315.49958	0.0143864453
3314.06987	0.0143611599
3312.64016	0.0143436883
3311.21045	0.0143267522
3309.78074	0.0142979929
3308.35102	0.0142485574
3306.92131	0.0141800037
3305.49160	0.0141036268
3304.06189	0.0140346950
3302.63218	0.0139843002
3301.20247	0.0139569268
3299.77276	0.0139497630
3298.34305	0.0139559377
3296.91334	0.0139669515
3295.48363	0.0139754256
3294.05392	0.0139767351
3292.62421	0.0139694642
3291.19449	0.0139544941
3289.76478	0.0139332972
3288.33507	0.0139066484
3286.90536	0.0138760451
3285.47565	0.0138451774
3284.04594	0.0138195492
3282.61623	0.0138041032
3281.18652	0.0137994010
3279.75681	0.0138000958
3278.32710	0.0137986252
3276.89739	0.0137889795
3275.46767	0.0137698473
3274.03796	0.0137439566
3272.60825	0.0137153426
3271.17854	0.0136868637
3269.74883	0.0136585198
3268.31912	0.0136275077
3266.88941	0.0135912355
3265.45970	0.0135497050
3264.02999	0.0135067096
3262.60028	0.0134687116
3261.17057	0.0134410504
3259.74085	0.0134243369
3258.31114	0.0134142451
3256.88143	0.0134021509
3255.45172	0.0133787375
3254.02201	0.0133371744
3252.59230	0.0132766915
3251.16259	0.0132048493
3249.73288	0.0131354472
3248.30317	0.0130816614
3246.87346	0.0130485557
3245.44375	0.0130290035
3244.01403	0.0130089978
3242.58432	0.0129792849
3241.15461	0.0129419472
3239.72490	0.0129086124
3238.29519	0.0128895193
3236.86548	0.0128826126
3235.43577	0.0128737334
3234.00606	0.0128451763
3232.57635	0.0127895605
3231.14664	0.0127150267
3229.71693	0.0126413582
3228.28721	0.0125887534
3226.85750	0.0125661306
3225.42779	0.0125687150
3223.99808	0.0125814518
3222.56837	0.0125875808
3221.13866	0.0125771621
3219.70895	0.0125491042
3218.27924	0.0125102308
3216.84953	0.0124686705
3215.41982	0.0124295121
3213.99011	0.0123922471
3212.56039	0.0123545071
3211.13068	0.0123150125
3209.70097	0.0122768786
3208.27126	0.0122443670
3206.84155	0.0122190202
3205.41184	0.0121970549
3203.98213	0.0121705122
3202.55242	0.0121333506
3201.12271	0.0120855980
3199.69300	0.0120346835
3198.26329	0.0119909598
3196.83357	0.0119618755
3195.40386	0.0119474009
3193.97415	0.0119409347
3192.54444	0.0119334580
3191.11473	0.0119195962
3189.68502	0.0119004138
3188.25531	0.0118814707
3186.82560	0.0118685951
3185.39589	0.0118629020
3183.96618	0.0118608801
3182.53647	0.0118565969
3181.10675	0.0118444394
3179.67704	0.0118206320
3178.24733	0.0117829945
3176.81762	0.0117319031
3175.38791	0.0116712181
3173.95820	0.0116091855
3172.52849	0.0115544451
3171.09878	0.0115128439
3169.66907	0.0114837643
3168.23936	0.0114608798
3166.80965	0.0114370938
3165.37993	0.0114083914
3163.95022	0.0113761835
3162.52051	0.0113464762
3161.09080	0.0113254590
3159.66109	0.0113162128
3158.23138	0.0113156810
3156.80167	0.0113163451
3155.37196	0.0113094375
3153.94225	0.0112891924
3152.51254	0.0112547092
3151.08283	0.0112108514
3149.65311	0.0111664142
3148.22340	0.0111307716
3146.79369	0.0111097116
3145.36398	0.0111002577
3143.93427	0.0110934060
3142.50456	0.0110791996
3141.07485	0.0110550346
3139.64514	0.0110269422
3138.21543	0.0110043744
3136.78572	0.0109921079
3135.35601	0.0109860022
3133.92629	0.0109774796
3132.49658	0.0109604355
3131.06687	0.0109361187
3129.63716	0.0109105818
3128.20745	0.0108912047
3126.77774	0.0108814901
3125.34803	0.0108811986
3123.91832	0.0108874096
3122.48861	0.0108962217
3121.05890	0.0109036276
3119.62919	0.0109055387
3118.19948	0.0108977612
3116.76976	0.0108763408
3115.34005	0.0108383074
3113.91034	0.0107854959
3112.48063	0.0107261371
3111.05092	0.0106725693
3109.62121	0.0106364638
3108.19150	0.0106220860
3106.76179	0.0106251892
3105.33208	0.0106356675
3103.90237	0.0106429104
3102.47266	0.0106405495
3101.04294	0.0106277093
3099.61323	0.0106070191
3098.18352	0.0105830664
3096.75381	0.0105586378
3095.32410	0.0105344495
3093.89439	0.0105089108
3092.46468	0.0104818074
3091.03497	0.0104552377
3089.60526	0.0104339449
3088.17555	0.0104228351
3086.74584	0.0104241343
3085.31612	0.0104352441
3083.88641	0.0104482369
3082.45670	0.0104533015
3081.02699	0.0104430662
3079.59728	0.0104179829
3078.16757	0.0103859548
3076.73786	0.0103579322
3075.30815	0.0103398515
3073.87844	0.0103295660
3072.44873	0.0103193605
3071.01902	0.0103029255
3069.58930	0.0102790957
3068.15959	0.0102518220
3066.72988	0.0102256369
3065.30017	0.0102043552
3063.87046	0.0101899654
3062.44075	0.0101847984
3061.01104	0.0101894625
3059.58133	0.0102010956
3058.15162	0.0102120414
3056.72191	0.0102127297
3055.29220	0.0101970145
3053.86248	0.0101660891
3052.43277	0.0101275081
3051.00306	0.0100906268
3049.57335	0.0100609539
3048.14364	0.0100377733
3046.71393	0.0100168986
3045.28422	0.0099961841
3043.85451	0.0099776424
3042.42480	0.0099652195
3040.99509	0.0099601075
3039.56538	0.0099586509
3038.13566	0.0099551817
3036.70595	0.0099469181
3035.27624	0.0099364035
3033.84653	0.0099289613
3032.41682	0.0099293580
3030.98711	0.0099394228
3029.55740	0.0099565592
3028.12769	0.0099750999
3026.69798	0.0099858008
3025.26827	0.0099799205
3023.83856	0.0099529298
3022.40884	0.0099099986
3020.97913	0.0098636281
3019.54942	0.0098274043
3018.11971	0.0098089492
3016.69000	0.0098071750
3015.26029	0.0098147476
3013.83058	0.0098225325
3012.40087	0.0098208375
3010.97116	0.0098019857
3009.54145	0.0097633842
3008.11174	0.0097114975
3006.68202	0.0096603846
3005.25231	0.0096247327
3003.82260	0.0096103884
3002.39289	0.0096105477
3000.96318	0.0096122678
2999.53347	0.0096056247
2998.10376	0.0095893228
2996.67405	0.0095681790
2995.24434	0.0095473006
2993.81463	0.0095282746
2992.38492	0.0095098587
2990.95520	0.0094913905
2989.52549	0.0094744051
2988.09578	0.0094628967
2986.66607	0.0094597489
2985.23636	0.0094638495
2983.80665	0.0094696162
2982.37694	0.0094687436
2980.94723	0.0094558066
2979.51752	0.0094326586
2978.08781	0.0094086118
2976.65810	0.0093951477
2975.22838	0.0093975281
2973.79867	0.0094124740
2972.36896	0.0094297752
2970.93925	0.0094394572
2969.50954	0.0094368644
2968.07983	0.0094233733
2966.65012	0.0094029773
2965.22041	0.0093778744
2963.79070	0.0093465578
2962.36099	0.0093059605
2960.93128	0.0092568258
2959.50157	0.0092065586
2958.07185	0.0091677988
2956.64214	0.0091504557
2955.21243	0.0091528883
2953.78272	0.0091625378
2952.35301	0.0091638593
2950.92330	0.0091517251
2949.49359	0.0091359159
2948.06388	0.0091328491
2946.63417	0.0091502974
2945.20446	0.0091780834
2943.77475	0.0091936560
2942.34503	0.0091777928
2940.91532	0.0091290157
2939.48561	0.0090641733
2938.05590	0.0090070311
2936.62619	0.0089726495
2935.19648	0.0089612333
2933.76677	0.0089625278
2932.33706	0.0089649595
2930.90735	0.0089636911
2929.47764	0.0089596482
2928.04793	0.0089563178
2926.61821	0.0089578247
2925.18850	0.0089676809
2923.75879	0.0089890864
2922.32908	0.0090221222
2920.89937	0.0090621384
2919.46966	0.0090999641
2918.03995	0.0091257645
2916.61024	0.0091322670
2915.18053	0.0091173844
2913.75082	0.0090838652
2912.32111	0.0090393806
2910.89139	0.0089952182
2909.46168	0.0089620790
2908.03197	0.0089450348
2906.60226	0.0089395652
2905.17255	0.0089357067
2903.74284	0.0089251902
2902.31313	0.0089077251
2900.88342	0.0088884635
2899.45371	0.0088721877
2898.02400	0.0088573135
2896.59429	0.0088408543
2895.16457	0.0088237356
2893.73486	0.0088132219
2892.30515	0.0088168150
2890.87544	0.0088341972
2889.44573	0.0088551734
2888.01602	0.0088661639
2886.58631	0.0088587403
2885.15660	0.0088351481
2883.72689	0.0088050067
2882.29718	0.0087792780
2880.86747	0.0087651731
2879.43775	0.0087629808
2878.00804	0.0087669166
2876.57833	0.0087686591
2875.14862	0.0087620299
2873.71891	0.0087470273
2872.28920	0.0087294104
2870.85949	0.0087150689
2869.42978	0.0087051382
2868.00007	0.0086940462
2866.57036	0.0086743189
2865.14065	0.0086426828
2863.71093	0.0086032338
2862.28122	0.0085650561
2860.85151	0.0085369386
2859.42180	0.0085236598
2857.99209	0.0085253492
2856.56238	0.0085383914
2855.13267	0.0085563697
2853.70296	0.0085719200
2852.27325	0.0085777817
2850.84354	0.0085709961
2849.41383	0.0085549969
2847.98411	0.0085385498
2846.55440	0.0085312370
2845.12469	0.0085368594
2843.69498	0.0085499808
2842.26527	0.0085596703
2840.83556	0.0085564228
2839.40585	0.0085394736
2837.97614	0.0085150544
2836.54643	0.0084911380
2835.11672	0.0084723430
2833.68701	0.0084581692
2832.25729	0.0084472680
2830.82758	0.0084401947
2829.39787	0.0084392177
2827.96816	0.0084454464
2826.53845	0.0084562954
2825.10874	0.0084666684
2823.67903	0.0084719472
2822.24932	0.0084696515
2820.81961	0.0084616002
2819.38990	0.0084530488
2817.96019	0.0084514646
2816.53047	0.0084614949
2815.10076	0.0084807640
2813.67105	0.0084985550
2812.24134	0.0085010100
2810.81163	0.0084805787
2809.38192	0.0084424643
2807.95221	0.0084012914
2806.52250	0.0083699655
2805.09279	0.0083518103
2803.66308	0.0083400672
2802.23337	0.0083270054
2800.80366	0.0083133373
2799.37394	0.0083085876
2797.94423	0.0083213057
2796.51452	0.0083496459
2795.08481	0.0083783045
2793.65510	0.0083875945
2792.22539	0.0083661657
2790.79568	0.0083190100
2789.36597	0.0082629155
2787.93626	0.0082165105
2786.50655	0.0081898142
2785.07684	0.0081817955
2783.64712	0.0081850132
2782.21741	0.0081921620
2780.78770	0.0082008410
2779.35799	0.0082123689
2777.92828	0.0082285134
2776.49857	0.0082470337
2775.06886	0.0082617551
2773.63915	0.0082651321
2772.20944	0.0082532866
2770.77973	0.0082291998
2769.35002	0.0082018431
2767.92030	0.0081812944
2766.49059	0.0081738820
2765.06088	0.0081788935
2763.63117	0.0081898402
2762.20146	0.0081990203
2760.77175	0.0082007349
2759.34204	0.0081933225
2757.91233	0.0081779705
2756.48262	0.0081584770
2755.05291	0.0081400406
2753.62320	0.0081272218
2752.19348	0.0081223957
2750.76377	0.0081232395
2749.33406	0.0081226062
2747.90435	0.0081121884
2746.47464	0.0080861319
2745.04493	0.0080442540
2743.61522	0.0079932576
2742.18551	0.0079444554
2740.75580	0.0079106586
2739.32609	0.0079010362
2737.89638	0.0079171965
2736.46666	0.0079509942
2735.03695	0.0079885907
2733.60724	0.0080169355
2732.17753	0.0080303308
2730.74782	0.0080307797
2729.31811	0.0080239233
2727.88840	0.0080135874
2726.45869	0.0080005089
2725.02898	0.0079846624
2723.59927	0.0079671033
2722.16956	0.0079510203
2720.73984	0.0079397103
2719.31013	0.0079350965
2717.88042	0.0079370998
2716.45071	0.0079435334
2715.02100	0.0079490962
2713.59129	0.0079470389
2712.16158	0.0079315640
2710.73187	0.0079011945
2709.30216	0.0078600729
2707.87245	0.0078151338
2706.44274	0.0077740205
2705.01302	0.0077420813
2703.58331	0.0077236616
2702.15360	0.0077215275
2700.72389	0.0077352300
2699.29418	0.0077603166
2697.86447	0.0077884626
2696.43476	0.0078096781
2695.00505	0.0078173745
2693.57534	0.0078097573
2692.14563	0.0077913352
2690.71592	0.0077698301
2689.28620	0.0077528064
2687.85649	0.0077433195
2686.42678	0.0077391826
2684.99707	0.0077338330
2683.56736	0.0077207894
2682.13765	0.0076969694
2680.70794	0.0076638241
2679.27823	0.0076267291
2677.84852	0.0075923512
2676.41881	0.0075661149
2674.98910	0.0075512324
2673.55938	0.0075474922
2672.12967	0.0075518382
2670.69996	0.0075596087
2669.27025	0.0075655617
2667.84054	0.0075658513
2666.41083	0.0075594243
2664.98112	0.0075484929
2663.55141	0.0075389054
2662.12170	0.0075368509
2660.69199	0.0075448318
2659.26228	0.0075597931
2657.83256	0.0075739115
2656.40285	0.0075795488
2654.97314	0.0075742803
2653.54343	0.0075624795
2652.11372	0.0075515485
2650.68401	0.0075467019
2649.25430	0.0075488617
2647.82459	0.0075537874
2646.39488	0.0075552622
2644.96517	0.0075479136
2643.53546	0.0075297132
2642.10575	0.0075029009
2640.67603	0.0074741947
2639.24632	0.0074524949
2637.81661	0.0074449372
2636.38690	0.0074532060
2634.95719	0.0074725617
2633.52748	0.0074947104
2632.09777	0.0075117503
2630.66806	0.0075204158
2629.23835	0.0075214165
2627.80864	0.0075175976
2626.37893	0.0075106705
2624.94921	0.0075010573
2623.51950	0.0074888109
2622.08979	0.0074745896
2620.66008	0.0074608694
2619.23037	0.0074501773
2617.80066	0.0074450951
2616.37095	0.0074468595
2614.94124	0.0074548651
2613.51153	0.0074663204
2612.08182	0.0074768281
2610.65211	0.0074829380
2609.22239	0.0074829119
2607.79268	0.0074778819
2606.36297	0.0074701128
2604.93326	0.0074616591
2603.50355	0.0074539697
2602.07384	0.0074482816
2600.64413	0.0074455165
2599.21442	0.0074457536
2597.78471	0.0074483342
2596.35500	0.0074516260
2594.92529	0.0074541802
2593.49557	0.0074547594
2592.06586	0.0074533112
2590.63615	0.0074521787
2589.20644	0.0074551022
2587.77673	0.0074653197
2586.34702	0.0074828854
2584.91731	0.0075031910
2583.48760	0.0075209159
2582.05789	0.0075335586
2580.62818	0.0075423820
2579.19847	0.0075505474
2577.76875	0.0075575276
2576.33904	0.0075593451
2574.90933	0.0075520752
2573.47962	0.0075357445
2572.04991	0.0075145159
2570.62020	0.0074928668
2569.19049	0.0074725091
2567.76078	0.0074533639
2566.33107	0.0074365633
2564.90136	0.0074267937
2563.47165	0.0074293744
2562.04193	0.0074455426
2560.61222	0.0074712979
2559.18251	0.0074984767
2557.75280	0.0075200205
2556.32309	0.0075339274
2554.89338	0.0075443052
2553.46367	0.0075591346
2552.03396	0.0075855809
2550.60425	0.0076250695
2549.17454	0.0076712011
2547.74483	0.0077105924
2546.31511	0.0077299071
2544.88540	0.0077224495
2543.45569	0.0076923058
2542.02598	0.0076522315
2540.59627	0.0076176403
2539.16656	0.0075995424
2537.73685	0.0076025194
2536.30714	0.0076244371
2534.87743	0.0076599247
2533.44772	0.0077018179
2532.01801	0.0077419230
2530.58829	0.0077724918
2529.15858	0.0077874083
2527.72887	0.0077856160
2526.29916	0.0077714906
2524.86945	0.0077542821
2523.43974	0.0077445321
2522.01003	0.0077491961
2520.58032	0.0077678273
2519.15061	0.0077938386
2517.72090	0.0078182435
2516.29119	0.0078350063
2514.86147	0.0078443633
2513.43176	0.0078503210
2512.00205	0.0078563038
2510.57234	0.0078619448
2509.14263	0.0078629991
2507.71292	0.0078564361
2506.28321	0.0078437310
2504.85350	0.0078313434
2503.42379	0.0078263357
2501.99408	0.0078311320
2500.56437	0.0078417808
2499.13465	0.0078510586
2497.70494	0.0078551443
2496.27523	0.0078563038
2494.84552	0.0078612333
2493.41581	0.0078756250
2491.98610	0.0078998236
2490.55639	0.0079290327
2489.12668	0.0079562934
2487.69697	0.0079764891
2486.26726	0.0079875886
2484.83755	0.0079901731
2483.40784	0.0079877209
2481.97812	0.0079842145
2480.54841	0.0079831863
2479.11870	0.0079852948
2477.68899	0.0079894345
2476.25928	0.0079954201
2474.82957	0.0080053871
2473.39986	0.0080220252
2471.97015	0.0080449665
2470.54044	0.0080687003
2469.11073	0.0080861840
2467.68102	0.0080934102
2466.25130	0.0080914330
2464.82159	0.0080849715
2463.39188	0.0080776131
2461.96217	0.0080710202
2460.53246	0.0080654295
2459.10275	0.0080615534
2457.67304	0.0080603398
2456.24333	0.0080626877
2454.81362	0.0080690430
2453.38391	0.0080794599
2451.95420	0.0080945976
2450.52448	0.0081140082
2449.09477	0.0081356624
2447.66506	0.0081568155
2446.23535	0.0081749372
2444.80564	0.0081894975
2443.37593	0.0082005505
2441.94622	0.0082087014
2440.51651	0.0082143731
2439.08680	0.0082192542
2437.65709	0.0082256384
2436.22738	0.0082350560
2434.79766	0.0082463743
2433.36795	0.0082563991
2431.93824	0.0082630217
2430.50853	0.0082677966
2429.07882	0.0082757380
2427.64911	0.0082913842
2426.21940	0.0083135217
2424.78969	0.0083346050
2423.35998	0.0083461367
2421.93027	0.0083447909
2420.50056	0.0083349748
2419.07084	0.0083250524
2417.64113	0.0083207516
2416.21142	0.0083215963
2414.78171	0.0083226776
2413.35200	0.0083200652
2411.92229	0.0083150258
2410.49258	0.0083128884
2409.06287	0.0083197225
2407.63316	0.0083369268
2406.20345	0.0083592255
2404.77374	0.0083771171
2403.34402	0.0083821844
2401.91431	0.0083737923
2400.48460	0.0083599109
2399.05489	0.0083525227
2397.62518	0.0083593838
2396.19547	0.0083787795
2394.76576	0.0084012123
2393.33605	0.0084170215
2391.90634	0.0084227482
2390.47663	0.0084228273
2389.04692	0.0084243584
2387.61720	0.0084328568
2386.18749	0.0084488783
2384.75778	0.0084700994
2383.32807	0.0084935930
2381.89836	0.0085165584
2380.46865	0.0085359626
2379.03894	0.0085482122
2377.60923	0.0085515380
2376.17952	0.0085503235
2374.74981	0.0085552875
2373.32010	0.0085802637
2371.89038	0.0086310906
2370.46067	0.0086963437
2369.03096	0.0087471586
2367.60125	0.0087499851
2366.17154	0.0086858328
2364.74183	0.0085635241
2363.31212	0.0084189475
2361.88241	0.0082994848
2360.45270	0.0082445536
2359.02299	0.0082647623
2357.59328	0.0083344206
2356.16356	0.0084072826
2354.73385	0.0084475847
2353.30414	0.0084508052
2351.87443	0.0084354170
2350.44472	0.0084204525
2349.01501	0.0084125344
2347.58530	0.0084072035
2346.15559	0.0083958022
2344.72588	0.0083756661
2343.29617	0.0083574569
2341.86646	0.0083612837
2340.43674	0.0083991541
2339.00703	0.0084616272
2337.57732	0.0085235545
2336.14761	0.0085621513
2334.71790	0.0085683297
2333.28819	0.0085486341
2331.85848	0.0085180895
2330.42877	0.0084915869
2328.99906	0.0084785465
2327.56935	0.0084845647
2326.13964	0.0085107507
2324.70993	0.0085523035
2323.28021	0.0085971085
2321.85050	0.0086296387
2320.42079	0.0086405184
2318.99108	0.0086311968
2317.56137	0.0086111026
2316.13166	0.0085886857
2314.70195	0.0085658738
2313.27224	0.0085404767
2311.84253	0.0085118599
2310.41282	0.0084838523
2308.98311	0.0084621543
2307.55339	0.0084491419
2306.12368	0.0084431507
2304.69397	0.0084409602
2303.26426	0.0084405905
2301.83455	0.0084420154
2300.40484	0.0084453942
2298.97513	0.0084493272
2297.54542	0.0084520718
2296.11571	0.0084537873
2294.68600	0.0084561370
2293.25629	0.0084610721
2291.82657	0.0084682256
2290.39686	0.0084745083
2288.96715	0.0084754322
2287.53744	0.0084681725
2286.10773	0.0084540779
2284.67802	0.0084386375
2283.24831	0.0084285811
2281.81860	0.0084282644
2280.38889	0.0084365252
2278.95918	0.0084468722
2277.52947	0.0084523354
2276.09975	0.0084492210
2274.67004	0.0084388480
2273.24033	0.0084248334
2271.81062	0.0084106866
2270.38091	0.0083983354
2268.95120	0.0083890455
2267.52149	0.0083847707
2266.09178	0.0083872247
2264.66207	0.0083958022
2263.23236	0.0084068337
2261.80265	0.0084163081
2260.37293	0.0084231971
2258.94322	0.0084302705
2257.51351	0.0084412768
2256.08380	0.0084566381
2254.65409	0.0084714722
2253.22438	0.0084788892
2251.79467	0.0084751146
2250.36496	0.0084627355
2248.93525	0.0084496168
2247.50554	0.0084434142
2246.07583	0.0084464764
2244.64611	0.0084543414
2243.21640	0.0084601752
2241.78669	0.0084601752
2240.35698	0.0084567433
2238.92727	0.0084563745
2237.49756	0.0084646884
2236.06785	0.0084819514
2234.63814	0.0085026994
2233.20843	0.0085194623
2231.77872	0.0085273292
2230.34901	0.0085261948
2228.91929	0.0085202549
2227.48958	0.0085149221
2226.05987	0.0085143149
2224.63016	0.0085201757
2223.20045	0.0085317912
2221.77074	0.0085470239
2220.34103	0.0085634980
2218.91132	0.0085788639
2217.48161	0.0085908510
2216.05190	0.0085964222
2214.62219	0.0085923029
2213.19247	0.0085767517
2211.76276	0.0085507995
2210.33305	0.0085183280
2208.90334	0.0084842481
2207.47363	0.0084520457
2206.04392	0.0084235929
2204.61421	0.0084001040
2203.18450	0.0083848238
2201.75479	0.0083824750
2200.32508	0.0083971480
2198.89537	0.0084283696
2197.46565	0.0084700733
2196.03594	0.0085118068
2194.60623	0.0085434066
2193.17652	0.0085577164
2191.74681	0.0085530430
2190.31710	0.0085331900
2188.88739	0.0085061314
2187.45768	0.0084807640
2186.02797	0.0084633157
2184.59826	0.0084554236
2183.16855	0.0084540248
2181.73883	0.0084548965
2180.30912	0.0084561370
2178.87941	0.0084585911
2177.44970	0.0084631052
2176.01999	0.0084672226
2174.59028	0.0084654540
2173.16057	0.0084526259
2171.73086	0.0084283175
2170.30115	0.0083984146
2168.87144	0.0083723404
2167.44173	0.0083586713
2166.01202	0.0083606765
2164.58230	0.0083756922
2163.15259	0.0083972532
2161.72288	0.0084182089
2160.29317	0.0084329098
2158.86346	0.0084377397
2157.43375	0.0084318807
2156.00404	0.0084167570
2154.57433	0.0083960127
2153.14462	0.0083760358
2151.71491	0.0083626295
2150.28520	0.0083585391
2148.85548	0.0083635263
2147.42577	0.0083742673
2145.99606	0.0083869873
2144.56635	0.0083990749
2143.13664	0.0084076254
2141.70693	0.0084099742
2140.27722	0.0084048547
2138.84751	0.0083937170
2137.41780	0.0083807856
2135.98809	0.0083699925
2134.55838	0.0083634742
2133.12866	0.0083609140
2131.69895	0.0083616264
2130.26924	0.0083652688
2128.83953	0.0083714696
2127.40982	0.0083778566
2125.98011	0.0083804689
2124.55040	0.0083766161
2123.12069	0.0083666146
2121.69098	0.0083545279
2120.26127	0.0083443951
2118.83156	0.0083382465
2117.40184	0.0083356341
2115.97213	0.0083345789
2114.54242	0.0083334967
2113.11271	0.0083313854
2111.68300	0.0083281929
2110.25329	0.0083248150
2108.82358	0.0083229942
2107.39387	0.0083244722
2105.96416	0.0083290897
2104.53445	0.0083334176
2103.10474	0.0083319927
2101.67502	0.0083201444
2100.24531	0.0082979538
2098.81560	0.0082709892
2097.38589	0.0082475878
2095.95618	0.0082340799
2094.52647	0.0082321018
2093.09676	0.0082388818
2091.66705	0.0082511231
2090.23734	0.0082666622
2088.80763	0.0082839970
2087.37792	0.0082997223
2085.94820	0.0083090626
2084.51849	0.0083084032
2083.08878	0.0082992734
2081.65907	0.0082878489
2080.22936	0.0082813585
2078.79965	0.0082828095
2077.36994	0.0082887197
2075.94023	0.0082914373
2074.51052	0.0082840491
2073.08081	0.0082649998
2071.65110	0.0082381694
2070.22138	0.0082105482
2068.79167	0.0081888381
2067.36196	0.0081767309
2065.93225	0.0081748310
2064.50254	0.0081814788
2063.07283	0.0081927422
2061.64312	0.0082036108
2060.21341	0.0082087805
2058.78370	0.0082052462
2057.35399	0.0081937443
2055.92428	0.0081796059
2054.49456	0.0081678936
2053.06485	0.0081606926
2051.63514	0.0081557343
2050.20543	0.0081497468
2048.77572	0.0081423353
2047.34601	0.0081356885
2045.91630	0.0081319958
2044.48659	0.0081294375
2043.05688	0.0081226062
2041.62717	0.0081071509
2040.19746	0.0080837850
2038.76774	0.0080586523
2037.33803	0.0080392966
2035.90832	0.0080299620
2034.47861	0.0080300150
2033.04890	0.0080361059
2031.61919	0.0080451770
2030.18948	0.0080559095
2028.75977	0.0080671441
2027.33006	0.0080761099
2025.90035	0.0080786683
2024.47064	0.0080716275
2023.04092	0.0080554085
2021.61121	0.0080353152
2020.18150	0.0080187023
2018.75179	0.0080109769
2017.32208	0.0080137718
2015.89237	0.0080243452
2014.46266	0.0080377674
2013.03295	0.0080495020
2011.60324	0.0080564376
2010.17353	0.0080575980
2008.74382	0.0080539845
2007.31411	0.0080484739
2005.88439	0.0080444654
2004.45468	0.0080439383
2003.02497	0.0080466541
2001.59526	0.0080505041
2000.16555	0.0080523500
1998.73584	0.0080496334
1997.30613	0.0080410903
1995.87642	0.0080274306
1994.44671	0.0080121895
1993.01700	0.0080000870
1991.58729	0.0079950243
1990.15757	0.0079978453
1988.72786	0.0080065206
1987.29815	0.0080179377
1985.86844	0.0080290129
1984.43873	0.0080370028
1983.00902	0.0080390070
1981.57931	0.0080331527
1980.14960	0.0080207326
1978.71989	0.0080064153
1977.29018	0.0079960264
1975.86047	0.0079933368
1974.43075	0.0079978723
1973.00104	0.0080056768
1971.57133	0.0080113718
1970.14162	0.0080103707
1968.71191	0.0080008516
1967.28220	0.0079853740
1965.85249	0.0079701347
1964.42278	0.0079616718
1962.99307	0.0079623312
1961.56336	0.0079694232
1960.13365	0.0079783080
1958.70393	0.0079866927
1957.27422	0.0079962108
1955.84451	0.0080091842
1954.41480	0.0080249785
1952.98509	0.0080389800
1951.55538	0.0080454675
1950.12567	0.0080416696
1948.69596	0.0080284858
1947.26625	0.0080088936
1945.83654	0.0079855062
1944.40683	0.0079599312
1942.97711	0.0079342527
1941.54740	0.0079119764
1940.11769	0.0078980047
1938.68798	0.0078972671
1937.25827	0.0079118712
1935.82856	0.0079403697
1934.39885	0.0079772267
1932.96914	0.0080143781
1931.53943	0.0080434894
1930.10972	0.0080587585
1928.68001	0.0080585731
1927.25029	0.0080475239
1925.82058	0.0080338912
1924.39087	0.0080266399
1922.96116	0.0080303308
1921.53145	0.0080426987
1920.10174	0.0080567542
1918.67203	0.0080671702
1917.24232	0.0080740005
1915.81261	0.0080815954
1914.38290	0.0080929091
1912.95319	0.0081066499
1911.52347	0.0081193363
1910.09376	0.0081296219
1908.66405	0.0081404094
1907.23434	0.0081558665
1905.80463	0.0081759654
1904.37492	0.0081950109
1902.94521	0.0082040858
1901.51550	0.0081979921
1900.08579	0.0081793424
1898.65608	0.0081579760
1897.22637	0.0081456061
1895.79665	0.0081494302
1894.36694	0.0081689488
1892.93723	0.0081979651
1891.50752	0.0082291206
1890.07781	0.0082578240
1888.64810	0.0082828095
1887.21839	0.0083047878
1885.78868	0.0083252108
1884.35897	0.0083447639
1882.92926	0.0083631305
1881.49955	0.0083770119
1880.06983	0.0083817886
1878.64012	0.0083757713
1877.21041	0.0083633680
1875.78070	0.0083542112
1874.35099	0.0083563225
1872.92128	0.0083688572
1871.49157	0.0083815241
1870.06186	0.0083821313
1868.63215	0.0083686728
1867.20244	0.0083537893
1865.77273	0.0083536571
1864.34301	0.0083730267
1862.91330	0.0084027434
1861.48359	0.0084280530
1860.05388	0.0084398780
1858.62417	0.0084403530
1857.19446	0.0084395874
1855.76475	0.0084471628
1854.33504	0.0084650842
1852.90533	0.0084879436
1851.47562	0.0085073719
1850.04591	0.0085174823
1848.61619	0.0085168229
1847.18648	0.0085072136
1845.75677	0.0084933024
1844.32706	0.0084818993
1842.89735	0.0084805787
1841.46764	0.0084938304
1840.03793	0.0085216537
1838.60822	0.0085595110
1837.17851	0.0086009372
1835.74880	0.0086400164
1834.31909	0.0086723389
1832.88938	0.0086942045
1831.45966	0.0087018898
1830.02995	0.0086919069
1828.60024	0.0086641517
1827.17053	0.0086248862
1825.74082	0.0085851476
1824.31111	0.0085552344
1822.88140	0.0085409516
1821.45169	0.0085435659
1820.02198	0.0085618086
1818.59227	0.0085928570
1817.16256	0.0086327018
1815.73284	0.0086750584
1814.30313	0.0087128505
1812.87342	0.0087411106
1811.44371	0.0087599428
1810.01400	0.0087752361
1808.58429	0.0087939911
1807.15458	0.0088191126
1805.72487	0.0088459803
1804.29516	0.0088657150
1802.86545	0.0088727688
1801.43574	0.0088701006
1800.00602	0.0088687800
1798.57631	0.0088787666
1797.14660	0.0089007225
1795.71689	0.0089256391
1794.28718	0.0089422073
1792.85747	0.0089456690
1791.42776	0.0089421542
1789.99805	0.0089436080
1788.56834	0.0089586172
1787.13863	0.0089884521
1785.70892	0.0090280958
1784.27920	0.0090696979
1782.84949	0.0091042463
1781.41978	0.0091261342
1779.99007	0.0091367876
1778.56036	0.0091433972
1777.13065	0.0091537340
1775.70094	0.0091699138
1774.27123	0.0091870995
1772.84152	0.0091979662
1771.41181	0.0092000542
1769.98210	0.0091998428
1768.55238	0.0092073791
1767.12267	0.0092283199
1765.69296	0.0092625907
1764.26325	0.0093050087
1762.83354	0.0093475897
1761.40383	0.0093801757
1759.97412	0.0093968138
1758.54441	0.0093995649
1757.11470	0.0093987454
1755.68499	0.0094062053
1754.25528	0.0094270762
1752.82556	0.0094574997
1751.39585	0.0094876867
1749.96614	0.0095093297
1748.53643	0.0095231421
1747.10672	0.0095377481
1745.67701	0.0095621189
1744.24730	0.0096009932
1742.81759	0.0096558845
1741.38788	0.0097270096
1739.95817	0.0098120468
1738.52846	0.0099023450
1737.09874	0.0099813240
1735.66903	0.0100299055
1734.23932	0.0100406604
1732.80961	0.0100323688
1731.37990	0.0100393631
1729.95019	0.0100832609
1728.52048	0.0101592792
1727.09077	0.0102485623
1725.66106	0.0103324559
1724.23135	0.0103989989
1722.80164	0.0104432516
1721.37192	0.0104630068
1719.94221	0.0104570137
1718.51250	0.0104313726
1717.08279	0.0104088616
1715.65308	0.0104206344
1714.22337	0.0104812514
1712.79366	0.0105794594
1711.36395	0.0106948288
1709.93424	0.0108110784
1708.50453	0.0109179355
1707.07482	0.0110103479
1705.64510	0.0110871391
1704.21539	0.0111495489
1702.78568	0.0111968266
1701.35597	0.0112259928
1699.92626	0.0112356357
1698.49655	0.0112362998
1697.06684	0.0112495292
1695.63713	0.0112928059
1694.20742	0.0113685038
1692.77771	0.0114693055
1691.34800	0.0115875173
1689.91828	0.0117175421
1688.48857	0.0118524469
1687.05886	0.0119793583
1685.62915	0.0120797949
1684.19944	0.0121445302
1682.76973	0.0121900002
1681.34002	0.0122448998
1679.91031	0.0123224687
1678.48060	0.0124141956
1677.05089	0.0125021581
1675.62118	0.0125699677
1674.19147	0.0126105519
1672.76175	0.0126297390
1671.33204	0.0126420781
1669.90233	0.0126621462
1668.47262	0.0126972478
1667.04291	0.0127453078
1665.61320	0.0127998516
1664.18349	0.0128562152
1662.75378	0.0129156252
1661.32407	0.0129837664
1659.89436	0.0130630946
1658.46465	0.0131458528
1657.03493	0.0132126147
1655.60522	0.0132366056
1654.17551	0.0131993257
1652.74580	0.0131172510
1651.31609	0.0130384462
1649.88638	0.0129912077
1648.45667	0.0129605625
1647.02696	0.0129204793
1645.59725	0.0128654670
1644.16754	0.0128117157
1642.73783	0.0127715925
1641.30811	0.0127374176
1639.87840	0.0126825888
1638.44869	0.0125752166
1637.01898	0.0124022095
1635.58927	0.0121947387
1634.15956	0.0120138992
1632.72985	0.0118952785
1631.30014	0.0118268300
1629.87043	0.0117756538
1628.44072	0.0117130745
1627.01101	0.0116251912
1625.58129	0.0115149971
1624.15158	0.0113964332
1622.72187	0.0112815946
1621.29216	0.0111694420
1619.86245	0.0110490341
1618.43274	0.0109141655
1617.00303	0.0107761016
1615.57332	0.0106600476
1614.14361	0.0105826957
1612.71390	0.0105357496
1611.28419	0.0104944045
1609.85447	0.0104363579
1608.42476	0.0103556253
1606.99505	0.0102637224
1605.56534	0.0101793921
1604.13563	0.0101158768
1602.70592	0.0100751007
1601.27621	0.0100507280
1599.84650	0.0100329518
1598.41679	0.0100117596
1596.98708	0.0099800788
1595.55737	0.0099368803
1594.12765	0.0098892096
1592.69794	0.0098480843
1591.26823	0.0098214466
1589.83852	0.0098083671
1588.40881	0.0098004770
1586.97910	0.0097882450
1585.54939	0.0097665349
1584.11968	0.0097362492
1582.68997	0.0097006438
1581.26026	0.0096623432
1579.83055	0.0096220868
1578.40083	0.0095822569
1576.97112	0.0095505547
1575.54141	0.0095381178
1574.11170	0.0095488345
1572.68199	0.0095712747
1571.25228	0.0095848506
1569.82257	0.0095743975
1568.39286	0.0095442571
1566.96315	0.0095181940
1565.53344	0.0095206546
1564.10373	0.0095594730
1562.67401	0.0096217692
1561.24430	0.0096786479
1559.81459	0.0096952971
1558.38488	0.0096598286
1556.95517	0.0096063130
1555.52546	0.0095783938
1554.09575	0.0095856441
1552.66604	0.0096142264
1551.23633	0.0096498504
1549.80662	0.0096870121
1548.37691	0.0097271949
1546.94719	0.0097724386
1545.51748	0.0098171309
1544.08777	0.0098409085
1542.65806	0.0098133972
1541.22835	0.0097233830
1539.79864	0.0096115535
1538.36893	0.0095368745
1536.93922	0.0095158126
1535.50951	0.0095242262
1534.07980	0.0095308684
1532.65009	0.0095194634
1531.22037	0.0094936667
1529.79066	0.0094693257
1528.36095	0.0094603039
1526.93124	0.0094686113
1525.50153	0.0094825542
1524.07182	0.0094812578
1522.64211	0.0094472086
1521.21240	0.0093806786
1519.78269	0.0093052201
1518.35298	0.0092516690
1516.92327	0.0092376545
1515.49356	0.0092591792
1514.06384	0.0092998249
1512.63413	0.0093397340
1511.20442	0.0093601001
1509.77471	0.0093424851
1508.34500	0.0092784837
1506.91529	0.0091908006
1505.48558	0.0091284607
1504.05587	0.0091193933
1502.62616	0.0091499006
1501.19645	0.0091905631
1499.76674	0.0092166066
1498.33702	0.0092151789
1496.90731	0.0091898227
1495.47760	0.0091541838
1494.04789	0.0091181770
1492.61818	0.0090807462
1491.18847	0.0090374518
1489.75876	0.0089917034
1488.32905	0.0089571113
1486.89934	0.0089448765
1485.46963	0.0089527769
1484.03992	0.0089688972
1482.61020	0.0089830346
1481.18049	0.0089926813
1479.75078	0.0090003982
1478.32107	0.0090070842
1476.89136	0.0090067675
1475.46165	0.0089886906
1474.03194	0.0089486018
1472.60223	0.0088999830
1471.17252	0.0088672740
1469.74281	0.0088633904
1468.31310	0.0088831522
1466.88338	0.0089130355
1465.45367	0.0089421012
1464.02396	0.0089652762
1462.59425	0.0089801541
1461.16454	0.0089801280
1459.73483	0.0089538079
1458.30512	0.0088952268
1456.87541	0.0088213058
1455.44570	0.0087695047
1454.01599	0.0087625310
1452.58628	0.0087914551
1451.15656	0.0088327974
1449.72685	0.0088667190
1448.29714	0.0088844467
1446.86743	0.0088895196
1445.43772	0.0088931927
1444.00801	0.0089057162
1442.57830	0.0089286780
1441.14859	0.0089533851
1439.71888	0.0089649856
1438.28917	0.0089520104
1436.85946	0.0089195622
1435.42974	0.0088922419
1434.00003	0.0088956235
1432.57032	0.0089345174
1431.14061	0.0089918878
1429.71090	0.0090453280
1428.28119	0.0090815928
1426.85148	0.0091023957
1425.42177	0.0091161942
1423.99206	0.0091280108
1422.56235	0.0091350693
1421.13264	0.0091312630
1419.70292	0.0091140801
1418.27321	0.0090884389
1416.84350	0.0090626664
1415.41379	0.0090424204
1413.98408	0.0090304473
1412.55437	0.0090290206
1411.12466	0.0090403324
1409.69495	0.0090639358
1408.26524	0.0090948092
1406.83553	0.0091242306
1405.40582	0.0091445604
1403.97610	0.0091525707
1402.54639	0.0091509316
1401.11668	0.0091437409
1399.68697	0.0091332458
1398.25726	0.0091184676
1396.82755	0.0090995673
1395.39784	0.0090819364
1393.96813	0.0090738209
1392.53842	0.0090783415
1391.10871	0.0090878308
1389.67900	0.0090878569
1388.24928	0.0090672392
1386.81957	0.0090281749
1385.38986	0.0089885052
1383.96015	0.0089690285
1382.53044	0.0089791240
1381.10073	0.0090118153
1379.67102	0.0090504820
1378.24131	0.0090785529
1376.81160	0.0090866676
1375.38189	0.0090760943
1373.95218	0.0090560326
1372.52246	0.0090381652
1371.09275	0.0090294965
1369.66304	0.0090306066
1368.23333	0.0090386672
1366.80362	0.0090508256
1365.37391	0.0090656532
1363.94420	0.0090817511
1362.51449	0.0090965275
1361.08478	0.0091060167
1359.65507	0.0091084223
1358.22536	0.0091055939
1356.79565	0.0091026071
1355.36593	0.0091046421
1353.93622	0.0091144759
1352.50651	0.0091293063
1351.07680	0.0091433441
1349.64709	0.0091515128
1348.21738	0.0091542099
1346.78767	0.0091581754
1345.35796	0.0091699669
1343.92825	0.0091908276
1342.49854	0.0092138834
1341.06883	0.0092299068
1339.63911	0.0092364904
1338.20940	0.0092417002
1336.77969	0.0092585711
1335.34998	0.0092943506
1333.92027	0.0093456060
1332.49056	0.0094019193
1331.06085	0.0094515998
1329.63114	0.0094864434
1328.20143	0.0095033767
1326.77172	0.0095046200
1325.34201	0.0094966292
1323.91229	0.0094863903
1322.48258	0.0094793793
1321.05287	0.0094776591
1319.62316	0.0094815483
1318.19345	0.0094922381
1316.76374	0.0095114205
1315.33403	0.0095385415
1313.90432	0.0095684435
1312.47461	0.0095933191
1311.04490	0.0096082715
1309.61519	0.0096156020
1308.18547	0.0096240183
1306.75576	0.0096420683
1305.32605	0.0096716331
1303.89634	0.0097066797
1302.46663	0.0097372551
1301.03692	0.0097571099
1299.60721	0.0097671701
1298.17750	0.0097736297
1296.74779	0.0097828433
1295.31808	0.0097966641
1293.88837	0.0098124174
1292.45865	0.0098252594
1291.02894	0.0098333880
1289.59923	0.0098387375
1288.16952	0.0098461779
1286.73981	0.0098589677
1285.31010	0.0098754922
1283.88039	0.0098892357
1282.45068	0.0098940823
1281.02097	0.0098893149
1279.59126	0.0098818475
1278.16155	0.0098817153
1276.73183	0.0098942406
1275.30212	0.0099160103
1273.87241	0.0099378070
1272.44270	0.0099530360
1271.01299	0.0099637900
1269.58328	0.0099789929
1268.15357	0.0100059584
1266.72386	0.0100424886
1265.29415	0.0100776972
1263.86444	0.0100992639
1262.43473	0.0101026287
1261.00501	0.0100944946
1259.57530	0.0100882156
1258.14559	0.0100952368
1256.71588	0.0101192147
1255.28617	0.0101556750
1253.85646	0.0101959016
1252.42675	0.0102315731
1250.99704	0.0102564609
1249.56733	0.0102669299
1248.13762	0.0102617880
1246.70791	0.0102431290
1245.27819	0.0102160424
1243.84848	0.0101881903
1242.41877	0.0101681566
1240.98906	0.0101619288
1239.55935	0.0101710185
1238.12964	0.0101914229
1236.69993	0.0102138435
1235.27022	0.0102269091
1233.84051	0.0102225356
1232.41080	0.0102004334
1230.98109	0.0101693217
1229.55137	0.0101416046
1228.12166	0.0101267667
1226.69195	0.0101265283
1225.26224	0.0101354839
1223.83253	0.0101448111
1222.40282	0.0101479646
1220.97311	0.0101419231
1219.54340	0.0101274289
1218.11369	0.0101079540
1216.68398	0.0100879502
1215.25427	0.0100717889
1213.82455	0.0100628082
1212.39484	0.0100620668
1210.96513	0.0100693256
1209.53542	0.0100833401
1208.10571	0.0101026818
1206.67600	0.0101257600
1205.24629	0.0101523893
1203.81658	0.0101829432
1202.38687	0.0102175009
1200.95716	0.0102525111
1199.52745	0.0102801565
1198.09774	0.0102903610
1196.66802	0.0102780359
1195.23831	0.0102480054
1193.80860	0.0102141080
1192.37889	0.0101925358
1190.94918	0.0101942057
1189.51947	0.0102208136
1188.08976	0.0102667706
1186.66005	0.0103241317
1185.23034	0.0103858225
1183.80063	0.0104468577
1182.37092	0.0105034476
1180.94120	0.0105536515
1179.51149	0.0105973370
1178.08178	0.0106362253
1176.65207	0.0106721185
1175.22236	0.0107052559
1173.79265	0.0107350787
1172.36294	0.0107619585
1170.93323	0.0107892109
1169.50352	0.0108216144
1168.07381	0.0108624864
1166.64410	0.0109107941
1165.21438	0.0109616034
1163.78467	0.0110088084
1162.35496	0.0110487416
1160.92525	0.0110829435
1159.49554	0.0111167757
1158.06583	0.0111571709
1156.63612	0.0112095764
1155.20641	0.0112760421
1153.77670	0.0113543682
1152.34699	0.0114385281
1150.91728	0.0115195159
1149.48756	0.0115880491
1148.05785	0.0116375284
1146.62814	0.0116673624
1145.19843	0.0116839549
1143.76872	0.0116974637
1142.33901	0.0117169563
1140.90930	0.0117473276
1139.47959	0.0117899626
1138.04988	0.0118465684
1136.62017	0.0119222300
1135.19046	0.0120235588
1133.76074	0.0121532083
1132.33103	0.0123049729
1130.90132	0.0124665396
1129.47161	0.0126271537
1128.04190	0.0127853481
1126.61219	0.0129503477
1125.18248	0.0131328860
1123.75277	0.0133359730
1122.32306	0.0135506932
1120.89335	0.0137633542
1119.46364	0.0139660956
1118.03392	0.0141622992
1116.60421	0.0143595543
1115.17450	0.0145590408
1113.74479	0.0147484420
1112.31508	0.0149069019
1110.88537	0.0150170224
1109.45566	0.0150740230
1108.02595	0.0150873158
1106.59624	0.0150744515
1105.16653	0.0150533607
1103.73682	0.0150358072
1102.30710	0.0150241507
1100.87739	0.0150107257
1099.44768	0.0149828047
1098.01797	0.0149305314
1096.58826	0.0148531646
1095.15855	0.0147599839
1093.72884	0.0146636376
1092.29913	0.0145731745
1090.86942	0.0144904917
1089.43971	0.0144115984
1088.01000	0.0143312467
1086.58028	0.0142459087
1085.15057	0.0141552119
1083.72086	0.0140615925
1082.29115	0.0139685012
1080.86144	0.0138782905
1079.43173	0.0137902619
1078.00202	0.0137018776
1076.57231	0.0136116408
1075.14260	0.0135219842
1073.71289	0.0134387538
1072.28318	0.0133668585
1070.85346	0.0133050103
1069.42375	0.0132461870
1067.99404	0.0131830480
1066.56433	0.0131143164
1065.13462	0.0130455419
1063.70491	0.0129824327
1062.27520	0.0129219461
1060.84549	0.0128518417
1059.41578	0.0127596231
1057.98607	0.0126450900
1056.55636	0.0125246448
1055.12664	0.0124217337
1053.69693	0.0123503255
1052.26722	0.0123043871
1050.83751	0.0122621804
1049.40780	0.0122015541
1047.97809	0.0121149570
1046.54838	0.0120133664
1045.11867	0.0119178928
1043.68896	0.0118466746
1042.25925	0.0118051777
1040.82954	0.0117839519
1039.39983	0.0117651476
1037.97011	0.0117327003
1036.54040	0.0116812428
1035.11069	0.0116191553
1033.68098	0.0115618091
1032.25127	0.0115212705
1030.82156	0.0114979846
1029.39185	0.0114810532
1027.96214	0.0114564151
1026.53243	0.0114160981
1025.10272	0.0113623925
1023.67301	0.0113065680
1022.24329	0.0112630241
1020.81358	0.0112440037
1019.38387	0.0112539651
1017.95416	0.0112872003
1016.52445	0.0113288332
1015.09474	0.0113620209
1013.66503	0.0113787884
1012.23532	0.0113851922
1010.80561	0.0113995951
1009.37590	0.0114402296
1007.94619	0.0115144383
1006.51647	0.0116142100
1005.08676	0.0117212646
1003.65705	0.0118175726
1002.22734	0.0118932836
1000.79763	0.0119488640
999.36792	0.0119914925
997.93821	0.0120288553
996.50850	0.0120641449
995.07879	0.0120941680
993.64908	0.0121114692
992.21937	0.0121072112
990.78965	0.0120767076
989.35994	0.0120228408
987.93023	0.0119583365
986.50052	0.0119029945
985.07081	0.0118759908
983.64110	0.0118856477
982.21139	0.0119215380
980.78168	0.0119576184
979.35197	0.0119640306
977.92226	0.0119232414
976.49255	0.0118382946
975.06283	0.0117299613
973.63312	0.0116239684
972.20341	0.0115382560
970.77370	0.0114765354
969.34399	0.0114299441
967.91428	0.0113851121
966.48457	0.0113321813
965.05486	0.0112710474
963.62515	0.0112105589
962.19544	0.0111618461
960.76573	0.0111291250
959.33601	0.0111053037
957.90630	0.0110759065
956.47659	0.0110297306
955.04688	0.0109675769
953.61717	0.0109015573
952.18746	0.0108464817
950.75775	0.0108088758
949.32804	0.0107842488
947.89833	0.0107633118
946.46862	0.0107411016
945.03891	0.0107222097
943.60919	0.0107157091
942.17948	0.0107279681
940.74977	0.0107559087
939.32006	0.0107892379
937.89035	0.0108172353
936.46064	0.0108359987
935.03093	0.0108483396
933.60122	0.0108584519
932.17151	0.0108649815
930.74180	0.0108578149
929.31209	0.0108236047
927.88237	0.0107553508
926.45266	0.0106600737
925.02295	0.0105592217
923.59324	0.0104803229
922.16353	0.0104448693
920.73382	0.0104576498
919.30411	0.0105059668
917.87440	0.0105652427
916.44469	0.0106092468
915.01498	0.0106186643
913.58527	0.0105868327
912.15555	0.0105211101
910.72584	0.0104411310
909.29613	0.0103718499
907.86642	0.0103337280
906.43671	0.0103336219
905.00700	0.0103624649
903.57729	0.0104023926
902.14758	0.0104378425
900.71787	0.0104644122
899.28816	0.0104889674
897.85845	0.0105229132
896.42873	0.0105718467
894.99902	0.0106278956
893.56931	0.0106718270
892.13960	0.0106836855
890.70989	0.0106577128
889.28018	0.0106101753
887.85047	0.0105729345
886.42076	0.0105741546
884.99105	0.0106210513
883.56134	0.0106970835
882.13163	0.0107767126
880.70192	0.0108414125
879.27220	0.0108877281
877.84249	0.0109214121
876.41278	0.0109476130
874.98307	0.0109668337
873.55336	0.0109755415
872.12365	0.0109711075
870.69394	0.0109550729
869.26423	0.0109355617
867.83452	0.0109285265
866.40481	0.0109527102
864.97510	0.0110188443
863.54538	0.0111211576
862.11567	0.0112359542
860.68596	0.0113332439
859.25625	0.0113913044
857.82654	0.0114037413
856.39683	0.0113779912
854.96712	0.0113277966
853.53741	0.0112692937
852.10770	0.0112163499
850.67799	0.0111774635
849.24828	0.0111509562
847.81856	0.0111250356
846.38885	0.0110841114
844.95914	0.0110189766
843.52943	0.0109339952
842.09972	0.0108445976
840.67001	0.0107693886
839.24030	0.0107219974
837.81059	0.0107079353
836.38088	0.0107244123
834.95117	0.0107602598
833.52146	0.0107960049
832.09174	0.0108092474
830.66203	0.0107860267
829.23232	0.0107303821
827.80261	0.0106650619
826.37290	0.0106156664
824.94319	0.0105918990
823.51348	0.0105819525
822.08377	0.0105657997
820.65406	0.0105370488
819.22435	0.0105119338
817.79464	0.0105145322
816.36492	0.0105514238
814.93521	0.0105995648
813.50550	0.0106198043
812.07579	0.0105852420
810.64608	0.0104997614
809.21637	0.0103944391
807.78666	0.0103061860
806.35695	0.0102574676
804.92724	0.0102513190
803.49753	0.0102785658
802.06782	0.0103287175
800.63810	0.0103932191
799.20839	0.0104651544
797.77868	0.0105375266
796.34897	0.0106038358
794.91926	0.0106592253
793.48955	0.0107005332
792.05984	0.0107253678
790.63013	0.0107331686
789.20042	0.0107264025
787.77071	0.0107092625
786.34100	0.0106823063
784.91128	0.0106401779
783.48157	0.0105765946
782.05186	0.0104959691
780.62215	0.0104193082
779.19244	0.0103753498
777.76273	0.0103820041
776.33302	0.0104311341
774.90331	0.0104934229
773.47360	0.0105406297
772.04389	0.0105644735
770.61418	0.0105778147
769.18446	0.0105956923
767.75475	0.0106177088
766.32504	0.0106280548
764.89533	0.0106149772
763.46562	0.0105882650
762.03591	0.0105773108
760.60620	0.0106083453
759.17649	0.0106810061
757.74678	0.0107649034
756.31707	0.0108212428
754.88736	0.0108290985
753.45764	0.0107984729
752.02793	0.0107604722
750.59822	0.0107447375
749.16851	0.0107629932
747.73880	0.0108052930
746.30909	0.0108490828
744.87938	0.0108730234
743.44967	0.0108685372
742.01996	0.0108436951
740.59025	0.0108160935
739.16054	0.0107991891
737.73082	0.0107917851
736.30111	0.0107805869
734.87140	0.0107544223
733.44169	0.0107161077
732.01198	0.0106823063
730.58227	0.0106723569
729.15256	0.0106977737
727.72285	0.0107600214
726.29314	0.0108499322
724.86343	0.0109470030
723.43372	0.0110201985
722.00401	0.0110405898
720.57429	0.0110034980
719.14458	0.0109402603
717.71487	0.0109036537
716.28516	0.0109330928
714.85545	0.0110299690
713.42574	0.0111632803
711.99603	0.0112959677
710.56632	0.0114053087
709.13661	0.0114851734
707.70690	0.0115346676
706.27719	0.0115507767
704.84747	0.0115316371
703.41776	0.0114822499
701.98805	0.0114144506
700.55834	0.0113423839
699.12863	0.0112792300
697.69892	0.0112361135
696.26921	0.0112202810
694.83950	0.0112280650
693.40979	0.0112426747
691.98008	0.0112416921
690.55037	0.0112119941
689.12065	0.0111611020
687.69094	0.0111114644
686.26123	0.0110842185
684.83152	0.0110867145
683.40181	0.0111127393
681.97210	0.0111520188
680.54239	0.0111981016
679.11268	0.0112466067
677.68297	0.0112878643
676.25326	0.0113043627
674.82355	0.0112763075
673.39383	0.0111932941
671.96412	0.0110669574
670.53441	0.0109429145
669.10470	0.0108989561
667.67499	0.0109966481
666.24528	0.0112127643
664.81557	0.0114541827
663.38586	0.0116376076
661.95615	0.0117287915
660.52644	0.0117360251
659.09673	0.0116961347
657.66701	0.0116575500
656.23730	0.0116541469
654.80759	0.0116889281
653.37788	0.0117413709
651.94817	0.0117922509
650.51846	0.0118410615
649.08875	0.0118980454
647.65904	0.0119614499
646.22933	0.0120057026
644.79962	0.0119973728
643.36991	0.0119257951
641.94019	0.0118198339
640.51048	0.0117346952
639.08077	0.0117205735
637.65106	0.0117975166
636.22135	0.0119512584
634.79164	0.0121434657
633.36193	0.0123227080
631.93222	0.0124340402
630.50251	0.0124319894
629.07280	0.0122977030
627.64309	0.0120507851
626.21337	0.0117430994
624.78366	0.0114338780
623.35395	0.0111618722
621.92424	0.0109420381
620.49453	0.0107913604
619.06482	0.0107445251
617.63511	0.0108256750
616.20540	0.0110041620
614.77569	0.0111892037
613.34598	0.0112790167
611.91627	0.0112265768
610.48655	0.0110697197
609.05684	0.0109065473
607.62713	0.0108356271
606.19742	0.0109058041
604.76771	0.0110977618
603.33800	0.0113389036
601.90829	0.0115355980
600.47858	0.0116158053
599.04887	0.0115610380
