3997.47168	0.0238446761
3996.04197	0.0238097813
3994.61226	0.0237868410
3993.18255	0.0237832032
3991.75284	0.0238003749
3990.32312	0.0238365810
3988.89341	0.0238891430
3987.46370	0.0239549242
3986.03399	0.0240246840
3984.60428	0.0240832884
3983.17457	0.0241146199
3981.74486	0.0241119377
3980.31515	0.0240831524
3978.88544	0.0240452569
3977.45573	0.0240130015
3976.02602	0.0239910334
3974.59630	0.0239769183
3973.16659	0.0239666607
3971.73688	0.0239585899
3970.30717	0.0239548162
3968.87746	0.0239579882
3967.44775	0.0239707902
3966.01804	0.0239924286
3964.58833	0.0240172688
3963.15862	0.0240352433
3961.72891	0.0240380615
3960.29920	0.0240267348
3958.86948	0.0240110587
3957.43977	0.0240019225
3956.01006	0.0240011830
3954.58035	0.0240004715
3953.15064	0.0239890367
3951.72093	0.0239648819
3950.29122	0.0239361338
3948.86151	0.0239158664
3947.43180	0.0239112712
3946.00209	0.0239197500
3944.57238	0.0239339452
3943.14266	0.0239492897
3941.71295	0.0239669345
3940.28324	0.0239890646
3938.85353	0.0240118522
3937.42382	0.0240264889
3935.99411	0.0240259971
3934.56440	0.0240141228
3933.13469	0.0240043830
3931.70498	0.0240089241
3930.27527	0.0240263790
3928.84556	0.0240429863
3927.41585	0.0240468439
3925.98613	0.0240387451
3924.55642	0.0240305644
3923.12671	0.0240334105
3921.69700	0.0240502637
3920.26729	0.0240778979
3918.83758	0.0241164528
3917.40787	0.0241703093
3915.97816	0.0242400467
3914.54845	0.0243152715
3913.11874	0.0243743807
3911.68903	0.0243938491
3910.25931	0.0243557896
3908.82960	0.0242512692
3907.39989	0.0240827408
3905.97018	0.0238658153
3904.54047	0.0236353036
3903.11076	0.0234448276
3901.68105	0.0233479291
3900.25134	0.0233643726
3898.82163	0.0234681889
3897.39192	0.0236089807
3895.96221	0.0237435848
3894.53249	0.0238512941
3893.10278	0.0239347387
3891.67307	0.0240107309
3890.24336	0.0240920167
3888.81365	0.0241702534
3887.38394	0.0242164526
3885.95423	0.0242028218
3884.52452	0.0241285469
3883.09481	0.0240315497
3881.66510	0.0239693951
3880.23539	0.0239802562
3878.80567	0.0240543410
3877.37596	0.0241437349
3875.94625	0.0241928864
3874.51654	0.0241697617
3873.08683	0.0240821671
3871.65712	0.0239749216
3870.22741	0.0239011776
3868.79770	0.0238863807
3867.36799	0.0239161942
3865.93828	0.0239640605
3864.50857	0.0240171049
3863.07885	0.0240774062
3861.64914	0.0241417922
3860.21943	0.0241880696
3858.78972	0.0241793953
3857.36001	0.0240820572
3855.93030	0.0238983054
3854.50059	0.0237097945
3853.07088	0.0236653704
3851.64117	0.0238399711
3850.21146	0.0241502766
3848.78175	0.0244583637
3847.35203	0.0246734489
3845.92232	0.0247589983
3844.49261	0.0247151814
3843.06290	0.0245744400
3841.63319	0.0243977364
3840.20348	0.0242587700
3838.77377	0.0242098011
3837.34406	0.0242496543
3835.91435	0.0243319981
3834.48464	0.0244071838
3833.05493	0.0244568307
3831.62521	0.0244907904
3830.19550	0.0245248340
3828.76579	0.0245637298
3827.33608	0.0246006008
3825.90637	0.0246268194
3824.47666	0.0246414486
3823.04695	0.0246540792
3821.61724	0.0246802177
3820.18753	0.0247335676
3818.75782	0.0248208009
3817.32811	0.0249390565
3815.89839	0.0250745676
3814.46868	0.0252046883
3813.03897	0.0253025517
3811.60926	0.0253443159
3810.17955	0.0253155585
3808.74984	0.0252179671
3807.32013	0.0250764601
3805.89042	0.0249344241
3804.46071	0.0248364229
3803.03100	0.0248063561
3801.60129	0.0248442348
3800.17157	0.0249374658
3798.74186	0.0250730049
3797.31215	0.0252378285
3795.88244	0.0254160818
3794.45273	0.0255892742
3793.02302	0.0257392693
3791.59331	0.0258520618
3790.16360	0.0259203129
3788.73389	0.0259463079
3787.30418	0.0259442180
3785.87447	0.0259360019
3784.44475	0.0259408932
3783.01504	0.0259654615
3781.58533	0.0260031670
3780.15562	0.0260424148
3778.72591	0.0260757562
3777.29620	0.0260978844
3775.86649	0.0261032172
3774.43678	0.0260881800
3773.00707	0.0260590985
3771.57736	0.0260369722
3770.14765	0.0260496158
3768.71794	0.0261140745
3767.28822	0.0262209699
3765.85851	0.0263381787
3764.42880	0.0264294483
3762.99909	0.0264697243
3761.56938	0.0264513455
3760.13967	0.0263868924
3758.70996	0.0263009947
3757.28025	0.0262129419
3755.85054	0.0261221025
3754.42083	0.0260156710
3752.99112	0.0258920658
3751.56140	0.0257787965
3750.13169	0.0257161167
3748.70198	0.0257243570
3747.27227	0.0257978607
3745.84256	0.0259356461
3744.41285	0.0261476971
3742.98314	0.0264221579
3741.55343	0.0267071426
3740.12372	0.0269325990
3738.69401	0.0270441584
3737.26430	0.0270238556
3735.83458	0.0269122999
3734.40487	0.0268076584
3732.97516	0.0268043540
3731.54545	0.0269201212
3730.11574	0.0271019880
3728.68603	0.0272832960
3727.25632	0.0274209734
3725.82661	0.0275101811
3724.39690	0.0275805406
3722.96719	0.0276736710
3721.53748	0.0278103705
3720.10776	0.0279734209
3718.67805	0.0281226132
3717.24834	0.0282178503
3715.81863	0.0282378774
3714.38892	0.0281910561
3712.95921	0.0281295460
3711.52950	0.0281382184
3710.09979	0.0282763876
3708.67008	0.0285202134
3707.24037	0.0287913382
3705.81066	0.0290293917
3704.38094	0.0292232446
3702.95123	0.0293969940
3701.52152	0.0295804814
3700.09181	0.0297856145
3698.66210	0.0299985018
3697.23239	0.0301954523
3695.80268	0.0303593744
3694.37297	0.0304905344
3692.94326	0.0306107886
3691.51355	0.0307622235
3690.08384	0.0309834015
3688.65412	0.0312744826
3687.22441	0.0315918177
3685.79470	0.0318897702
3684.36499	0.0321493484
3682.93528	0.0323719047
3681.50557	0.0325644650
3680.07586	0.0327407271
3678.64615	0.0329275317
3677.21644	0.0331637599
3675.78673	0.0334778614
3674.35702	0.0338699035
3672.92730	0.0343273431
3671.49759	0.0348524116
3670.06788	0.0354551263
3668.63817	0.0361219384
3667.20846	0.0368155576
3665.77875	0.0375012830
3664.34904	0.0381651148
3662.91933	0.0388035551
3661.48962	0.0394089445
3660.05991	0.0399701372
3658.63020	0.0404871590
3657.20048	0.0409790762
3655.77077	0.0414712690
3654.34106	0.0419801846
3652.91135	0.0425220467
3651.48164	0.0431405380
3650.05193	0.0439062342
3648.62222	0.0448523797
3647.19251	0.0459065437
3645.76280	0.0469498634
3644.33309	0.0479196645
3642.90338	0.0488213897
3641.47366	0.0496848486
3640.04395	0.0505350828
3638.61424	0.0513829030
3637.18453	0.0522224568
3635.75482	0.0530348867
3634.32511	0.0538078137
3632.89540	0.0545660332
3631.46569	0.0553897433
3630.03598	0.0563748553
3628.60627	0.0575292036
3627.17656	0.0587256588
3625.74684	0.0598153323
3624.31713	0.0607526042
3622.88742	0.0615872145
3621.45771	0.0623983331
3620.02800	0.0632446483
3618.59829	0.0641415566
3617.16858	0.0650662705
3615.73887	0.0659877509
3614.30916	0.0668984950
3612.87945	0.0678225383
3611.44974	0.0687985346
3610.02003	0.0698443353
3608.59031	0.0709289238
3607.16060	0.0719866008
3605.73089	0.0729656368
3604.30118	0.0738576427
3602.87147	0.0746847689
3601.44176	0.0754742026
3600.01205	0.0762500465
3598.58234	0.0770411268
3597.15263	0.0778785571
3595.72292	0.0787725002
3594.29321	0.0796982348
3592.86349	0.0806171596
3591.43378	0.0815186426
3590.00407	0.0824338868
3588.57436	0.0834042877
3587.14465	0.0844286159
3585.71494	0.0854507908
3584.28523	0.0864061117
3582.85552	0.0872708932
3581.42581	0.0880655274
3579.99610	0.0888305753
3578.56639	0.0896060467
3577.13667	0.0904141441
3575.70696	0.0912477672
3574.27725	0.0920736417
3572.84754	0.0928573683
3571.41783	0.0935925469
3569.98812	0.0943107903
3568.55841	0.0950646400
3567.12870	0.0958895534
3565.69899	0.0967767760
3564.26928	0.0976885110
3562.83957	0.0985937491
3561.40985	0.0994820669
3559.98014	0.1003560573
3558.55043	0.1012227237
3557.12072	0.1020916477
3555.69101	0.1029715687
3554.26130	0.1038621217
3552.83159	0.1047518626
3551.40188	0.1056267619
3549.97217	0.1064806730
3548.54246	0.1073192582
3547.11275	0.1081520319
3545.68303	0.1089845076
3544.25332	0.1098150462
3542.82361	0.1106370240
3541.39390	0.1114442348
3539.96419	0.1122343093
3538.53448	0.1130101085
3537.10477	0.1137739718
3535.67506	0.1145225763
3534.24535	0.1152503937
3532.81564	0.1159643531
3531.38593	0.1166897118
3529.95621	0.1174569651
3528.52650	0.1182741076
3527.09679	0.1191145480
3525.66708	0.1199384704
3524.23737	0.1207284778
3522.80766	0.1215004697
3521.37795	0.1222817302
3519.94824	0.1230834052
3518.51853	0.1238934398
3517.08882	0.1246884763
3515.65911	0.1254470497
3514.22939	0.1261568069
3512.79968	0.1268189102
3511.36997	0.1274526864
3509.94026	0.1280889660
3508.51055	0.1287543774
3507.08084	0.1294564754
3505.65113	0.1301864386
3504.22142	0.1309315562
3502.79171	0.1316830814
3501.36200	0.1324311942
3499.93229	0.1331612319
3498.50257	0.1338586956
3497.07286	0.1345186830
3495.64315	0.1351466030
3494.21344	0.1357510835
3492.78373	0.1363409609
3491.35402	0.1369251311
3489.92431	0.1375132650
3488.49460	0.1381110251
3487.06489	0.1387176514
3485.63518	0.1393310130
3484.20547	0.1399540305
3482.77575	0.1405900419
3481.34604	0.1412305683
3479.91633	0.1418526322
3478.48662	0.1424355507
3477.05691	0.1429790556
3475.62720	0.1435029358
3474.19749	0.1440294236
3472.76778	0.1445667446
3471.33807	0.1451084465
3469.90836	0.1456442326
3468.47865	0.1461677849
3467.04893	0.1466773450
3465.61922	0.1471736580
3464.18951	0.1476597786
3462.75980	0.1481375992
3461.33009	0.1486054063
3459.90038	0.1490590870
3458.47067	0.1494992822
3457.04096	0.1499351114
3455.61125	0.1503754109
3454.18154	0.1508172005
3452.75183	0.1512471586
3451.32212	0.1516565233
3449.89240	0.1520513445
3448.46269	0.1524456143
3447.03298	0.1528458446
3445.60327	0.1532469094
3444.17356	0.1536461264
3442.74385	0.1540521085
3441.31414	0.1544767916
3439.88443	0.1549186409
3438.45472	0.1553589106
3437.02501	0.1557745039
3435.59530	0.1561533511
3434.16558	0.1564969867
3432.73587	0.1568123251
3431.30616	0.1571066082
3429.87645	0.1573866457
3428.44674	0.1576583385
3427.01703	0.1579254121
3425.58732	0.1581880599
3424.15761	0.1584472805
3422.72790	0.1587060690
3421.29819	0.1589664668
3419.86848	0.1592259258
3418.43876	0.1594798267
3417.00905	0.1597301066
3415.57934	0.1599864811
3414.14963	0.1602580845
3412.71992	0.1605411768
3411.29021	0.1608205289
3409.86050	0.1610773802
3408.43079	0.1613012701
3407.00108	0.1614931971
3405.57137	0.1616617590
3404.14166	0.1618201137
3402.71194	0.1619814038
3401.28223	0.1621576846
3399.85252	0.1623575538
3398.42281	0.1625857055
3396.99310	0.1628385782
3395.56339	0.1630981416
3394.13368	0.1633307934
3392.70397	0.1634995490
3391.27426	0.1635864377
3389.84455	0.1636062413
3388.41484	0.1636006236
3386.98512	0.1636132151
3385.55541	0.1636705697
3384.12570	0.1637775153
3382.69599	0.1639267802
3381.26628	0.1641067713
3379.83657	0.1643013805
3378.40686	0.1644922942
3376.97715	0.1646653563
3375.54744	0.1648184955
3374.11773	0.1649605781
3372.68802	0.1650990844
3371.25830	0.1652292162
3369.82859	0.1653340906
3368.39888	0.1653982699
3366.96917	0.1654226333
3365.53946	0.1654294431
3364.10975	0.1654495597
3362.68004	0.1655017436
3361.25033	0.1655806005
3359.82062	0.1656661928
3358.39091	0.1657450050
3356.96120	0.1658247858
3355.53148	0.1659256369
3354.10177	0.1660564095
3352.67206	0.1662034988
3351.24235	0.1663401872
3349.81264	0.1664509922
3348.38293	0.1665406227
3346.95322	0.1666256785
3345.52351	0.1667181551
3344.09380	0.1668194085
3342.66409	0.1669270992
3341.23438	0.1670397222
3339.80466	0.1671533287
3338.37495	0.1672584713
3336.94524	0.1673464924
3335.51553	0.1674216837
3334.08582	0.1675046682
3332.65611	0.1676217169
3331.22640	0.1677861661
3329.79669	0.1679891795
3328.36698	0.1682037264
3326.93727	0.1683986485
3325.50756	0.1685533971
3324.07784	0.1686646491
3322.64813	0.1687465012
3321.21842	0.1688218266
3319.78871	0.1689136773
3318.35900	0.1690385491
3316.92929	0.1692064852
3315.49958	0.1694231182
3314.06987	0.1696885675
3312.64016	0.1699938327
3311.21045	0.1703184545
3309.78074	0.1706344783
3308.35102	0.1709143668
3306.92131	0.1711373925
3305.49160	0.1712946892
3304.06189	0.1713921726
3302.63218	0.1714506745
3301.20247	0.1715008467
3299.77276	0.1715692878
3298.34305	0.1716625094
3296.91334	0.1717595011
3295.48363	0.1718210429
3294.05392	0.1718106270
3292.62421	0.1717143208
3291.19449	0.1715481132
3289.76478	0.1713474542
3288.33507	0.1711463630
3286.90536	0.1709592938
3285.47565	0.1707784534
3284.04594	0.1705864370
3282.61623	0.1703725904
3281.18652	0.1701368690
3279.75681	0.1698831320
3278.32710	0.1696076095
3276.89739	0.1692970246
3275.46767	0.1689364016
3274.03796	0.1685176045
3272.60825	0.1680407524
3271.17854	0.1675088257
3269.74883	0.1669254303
3268.31912	0.1662961543
3266.88941	0.1656328738
3265.45970	0.1649555415
3264.02999	0.1642891020
3262.60028	0.1636557430
3261.17057	0.1630654335
3259.74085	0.1625080705
3258.31114	0.1619556993
3256.88143	0.1613760591
3255.45172	0.1607532799
3254.02201	0.1600989252
3252.59230	0.1594448239
3251.16259	0.1588207185
3249.73288	0.1582360119
3248.30317	0.1576785147
3246.87346	0.1571281999
3245.44375	0.1565736085
3244.01403	0.1560185999
3242.58432	0.1554790586
3241.15461	0.1549757421
3239.72490	0.1545261592
3238.29519	0.1541367918
3236.86548	0.1537945420
3235.43577	0.1534674466
3234.00606	0.1531135738
3232.57635	0.1527022421
3231.14664	0.1522300839
3229.71693	0.1517249495
3228.28721	0.1512301117
3226.85750	0.1507790387
3225.42779	0.1503777802
3223.99808	0.1500053555
3222.56837	0.1496335268
3221.13866	0.1492466182
3219.70895	0.1488494575
3218.27924	0.1484573781
3216.84953	0.1480797380
3215.41982	0.1477119327
3213.99011	0.1473415941
3212.56039	0.1469597369
3211.13068	0.1465670764
3209.70097	0.1461715847
3208.27126	0.1457801461
3206.84155	0.1453929394
3205.41184	0.1450039595
3203.98213	0.1446063221
3202.55242	0.1441977024
3201.12271	0.1437833458
3199.69300	0.1433727741
3198.26329	0.1429723352
3196.83357	0.1425797343
3195.40386	0.1421849877
3193.97415	0.1417795718
3192.54444	0.1413621753
3191.11473	0.1409390569
3189.68502	0.1405158043
3188.25531	0.1400906146
3186.82560	0.1396551281
3185.39589	0.1392007768
3183.96618	0.1387245208
3182.53647	0.1382310092
3181.10675	0.1377291530
3179.67704	0.1372275054
3178.24733	0.1367312074
3176.81762	0.1362410784
3175.38791	0.1357558221
3173.95820	0.1352759749
3172.52849	0.1348063499
3171.09878	0.1343521774
3169.66907	0.1339133084
3168.23936	0.1334785372
3166.80965	0.1330308914
3165.37993	0.1325558722
3163.95022	0.1320514530
3162.52051	0.1315293312
3161.09080	0.1310102642
3159.66109	0.1305151135
3158.23138	0.1300561875
3156.80167	0.1296307147
3155.37196	0.1292201877
3153.94225	0.1287965775
3152.51254	0.1283339262
3151.08283	0.1278205812
3149.65311	0.1272659004
3148.22340	0.1266994476
3146.79369	0.1261600554
3145.36398	0.1256778687
3143.93427	0.1252579391
3142.50456	0.1248755455
3141.07485	0.1244898960
3139.64514	0.1240694225
3138.21543	0.1236109212
3136.78572	0.1231387407
3135.35601	0.1226833761
3133.92629	0.1222581267
3132.49658	0.1218528003
3131.06687	0.1214487329
3129.63716	0.1210397780
3128.20745	0.1206407771
3126.77774	0.1202774793
3125.34803	0.1199664176
3123.91832	0.1197002456
3122.48861	0.1194478348
3121.05890	0.1191688403
3119.62919	0.1188319176
3118.19948	0.1184290946
3116.76976	0.1179774851
3115.34005	0.1175106019
3113.91034	0.1170620173
3112.48063	0.1166502982
3111.05092	0.1162728667
3109.62121	0.1159125939
3108.19150	0.1155545115
3106.76179	0.1151976734
3105.33208	0.1148542091
3103.90237	0.1145354807
3102.47266	0.1142383367
3101.04294	0.1139441505
3099.61323	0.1136332527
3098.18352	0.1133017763
3096.75381	0.1129653826
3095.32410	0.1126483083
3093.89439	0.1123677343
3092.46468	0.1121247113
3091.03497	0.1119084507
3089.60526	0.1117029786
3088.17555	0.1114924476
3086.74584	0.1112641618
3085.31612	0.1110111922
3083.88641	0.1107328162
3082.45670	0.1104325205
3081.02699	0.1101108789
3079.59728	0.1097616181
3078.16757	0.1093760654
3076.73786	0.1089527309
3075.30815	0.1085079089
3073.87844	0.1080730408
3072.44873	0.1076819524
3071.01902	0.1073500142
3069.58930	0.1070610881
3068.15959	0.1067721620
3066.72988	0.1064344645
3065.30017	0.1060228795
3063.87046	0.1055502817
3062.44075	0.1050588414
3061.01104	0.1045929268
3059.58133	0.1041738689
3058.15162	0.1037941650
3056.72191	0.1034303010
3055.29220	0.1030605659
3053.86248	0.1026735380
3052.43277	0.1022675335
3051.00306	0.1018455401
3049.57335	0.1014145687
3048.14364	0.1009834707
3046.71393	0.1005603746
3045.28422	0.1001463905
3043.85451	0.0997348204
3042.42480	0.0993165821
3040.99509	0.0988898352
3039.56538	0.0984620824
3038.13566	0.0980429575
3036.70595	0.0976351947
3035.27624	0.0972306281
3033.84653	0.0968174413
3032.41682	0.0963908806
3030.98711	0.0959563181
3029.55740	0.0955245048
3028.12769	0.0951017588
3026.69798	0.0946881771
3025.26827	0.0942817181
3023.83856	0.0938850492
3022.40884	0.0935074911
3020.97913	0.0931591913
3019.54942	0.0928428471
3018.11971	0.0925487429
3016.69000	0.0922578424
3015.26029	0.0919494778
3013.83058	0.0916101933
3012.40087	0.0912389830
3010.97116	0.0908475742
3009.54145	0.0904558748
3008.11174	0.0900874659
3006.68202	0.0897626877
3005.25231	0.0894933343
3003.82260	0.0892773643
3002.39289	0.0891002193
3000.96318	0.0889426097
2999.53347	0.0887927860
2998.10376	0.0886528790
2996.67405	0.0885336846
2995.24434	0.0884419307
2993.81463	0.0883711129
2992.38492	0.0883068666
2990.95520	0.0882416517
2989.52549	0.0881876349
2988.09578	0.0881740674
2986.66607	0.0882294402
2985.23636	0.0883620381
2983.80665	0.0885530710
2982.37694	0.0887669623
2980.94723	0.0889712051
2979.51752	0.0891512260
2978.08781	0.0893123746
2976.65810	0.0894694775
2975.22838	0.0896341726
2973.79867	0.0898081735
2972.36896	0.0899868831
2970.93925	0.0901672021
2969.50954	0.0903512537
2968.07983	0.0905411616
2966.65012	0.0907294303
2965.22041	0.0908927917
2963.79070	0.0909969658
2962.36099	0.0910087079
2960.93128	0.0909112021
2959.50157	0.0907096490
2958.07185	0.0904261619
2956.64214	0.0900863484
2955.21243	0.0897096246
2953.78272	0.0893098637
2952.35301	0.0889033452
2950.92330	0.0885153040
2949.49359	0.0881743208
2948.06388	0.0878998935
2946.63417	0.0876935273
2945.20446	0.0875419155
2943.77475	0.0874297619
2942.34503	0.0873512253
2940.91532	0.0873097628
2939.48561	0.0873108357
2938.05590	0.0873554647
2936.62619	0.0874374211
2935.19648	0.0875443518
2933.76677	0.0876565650
2932.33706	0.0877463669
2930.90735	0.0877828375
2929.47764	0.0877412409
2928.04793	0.0876125321
2926.61821	0.0874062702
2925.18850	0.0871437564
2923.75879	0.0868460536
2922.32908	0.0865227655
2920.89937	0.0861656964
2919.46966	0.0857514516
2918.03995	0.0852535516
2916.61024	0.0846571550
2915.18053	0.0839706063
2913.75082	0.0832245350
2912.32111	0.0824608952
2910.89139	0.0817193463
2909.46168	0.0810262859
2908.03197	0.0803932324
2906.60226	0.0798199177
2905.17255	0.0793012381
2903.74284	0.0788341388
2902.31313	0.0784206241
2900.88342	0.0780642033
2899.45371	0.0777609497
2898.02400	0.0774926916
2896.59429	0.0772314593
2895.16457	0.0769534484
2893.73486	0.0766526386
2892.30515	0.0763447508
2890.87544	0.0760564804
2889.44573	0.0758101940
2888.01602	0.0756134987
2886.58631	0.0754607096
2885.15660	0.0753425285
2883.72689	0.0752544478
2882.29718	0.0752006099
2880.86747	0.0751874968
2879.43775	0.0752142146
2878.00804	0.0752634034
2876.57833	0.0753004700
2875.14862	0.0752812922
2873.71891	0.0751686916
2872.28920	0.0749459788
2870.85949	0.0746231005
2869.42978	0.0742325261
2868.00007	0.0738168061
2866.57036	0.0734159127
2865.14065	0.0730576590
2863.71093	0.0727552548
2862.28122	0.0725083277
2860.85151	0.0723062083
2859.42180	0.0721313506
2857.99209	0.0719622746
2856.56238	0.0717773587
2855.13267	0.0715569630
2853.70296	0.0712838694
2852.27325	0.0709433705
2850.84354	0.0705246627
2849.41383	0.0700272396
2847.98411	0.0694672018
2846.55440	0.0688784570
2845.12469	0.0683040842
2843.69498	0.0677805990
2842.26527	0.0673251152
2840.83556	0.0669322908
2839.40585	0.0665838420
2837.97614	0.0662610531
2836.54643	0.0659531876
2835.11672	0.0656579658
2833.68701	0.0653764606
2832.25729	0.0651112571
2830.82758	0.0648650900
2829.39787	0.0646412373
2827.96816	0.0644411221
2826.53845	0.0642619878
2825.10874	0.0640974864
2823.67903	0.0639405102
2822.24932	0.0637861043
2820.81961	0.0636323318
2819.38990	0.0634794459
2817.96019	0.0633280501
2816.53047	0.0631799474
2815.10076	0.0630373657
2813.67105	0.0629001036
2812.24134	0.0627628490
2810.81163	0.0626160130
2809.38192	0.0624514408
2807.95221	0.0622693039
2806.52250	0.0620809421
2805.09279	0.0619040355
2803.66308	0.0617544167
2802.23337	0.0616364367
2800.80366	0.0615420267
2799.37394	0.0614542253
2797.94423	0.0613579452
2796.51452	0.0612470508
2795.08481	0.0611254275
2793.65510	0.0609999634
2792.22539	0.0608710833
2790.79568	0.0607298873
2789.36597	0.0605637655
2787.93626	0.0603669211
2786.50655	0.0601463802
2785.07684	0.0599211641
2783.64712	0.0597133525
2782.21741	0.0595422462
2780.78770	0.0594168864
2779.35799	0.0593324527
2777.92828	0.0592691004
2776.49857	0.0591986068
2775.06886	0.0590971000
2773.63915	0.0589571893
2772.20944	0.0587894358
2770.77973	0.0586127080
2769.35002	0.0584396347
2767.92030	0.0582691766
2766.49059	0.0580936670
2765.06088	0.0579103343
2763.63117	0.0577280782
2762.20146	0.0575639606
2760.77175	0.0574314259
2759.34204	0.0573314540
2757.91233	0.0572520904
2756.48262	0.0571766682
2755.05291	0.0570927262
2753.62320	0.0569968484
2752.19348	0.0568923429
2750.76377	0.0567830242
2749.33406	0.0566689000
2747.90435	0.0565471649
2746.47464	0.0564171225
2745.04493	0.0562830828
2743.61522	0.0561527945
2742.18551	0.0560323857
2740.75580	0.0559209548
2739.32609	0.0558095872
2737.89638	0.0556859747
2736.46666	0.0555436872
2735.03695	0.0553875975
2733.60724	0.0552320592
2732.17753	0.0550927147
2730.74782	0.0549757406
2729.31811	0.0548754781
2727.88840	0.0547784455
2726.45869	0.0546715930
2725.02898	0.0545482785
2723.59927	0.0544090904
2722.16956	0.0542587452
2720.73984	0.0541039072
2719.31013	0.0539517291
2717.88042	0.0538072847
2716.45071	0.0536731109
2715.02100	0.0535480268
2713.59129	0.0534292124
2712.16158	0.0533144400
2710.73187	0.0532006361
2709.30216	0.0530847572
2707.87245	0.0529643446
2706.44274	0.0528400168
2705.01302	0.0527164303
2703.58331	0.0525990129
2702.15360	0.0524887554
2700.72389	0.0523801595
2699.29418	0.0522650816
2697.86447	0.0521401986
2696.43476	0.0520117022
2695.00505	0.0518926680
2693.57534	0.0517949834
2692.14563	0.0517216399
2690.71592	0.0516655967
2689.28620	0.0516143739
2687.85649	0.0515583158
2686.42678	0.0514956489
2684.99707	0.0514307208
2683.56736	0.0513688587
2682.13765	0.0513095409
2680.70794	0.0512450188
2679.27823	0.0511640795
2677.84852	0.0510595143
2676.41881	0.0509330556
2674.98910	0.0507954285
2673.55938	0.0506593622
2672.12967	0.0505328141
2670.69996	0.0504147373
2669.27025	0.0502986945
2667.84054	0.0501804203
2666.41083	0.0500629283
2664.98112	0.0499554053
2663.55141	0.0498667210
2662.12170	0.0497989841
2660.69199	0.0497462116
2659.26228	0.0496976227
2657.83256	0.0496423617
2656.40285	0.0495729782
2654.97314	0.0494865216
2653.54343	0.0493846200
2652.11372	0.0492741317
2650.68401	0.0491651185
2649.25430	0.0490680188
2647.82459	0.0489884093
2646.39488	0.0489254482
2644.96517	0.0488734730
2643.53546	0.0488264300
2642.10575	0.0487808399
2640.67603	0.0487373695
2639.24632	0.0486984476
2637.81661	0.0486655533
2636.38690	0.0486372076
2634.95719	0.0486092679
2633.52748	0.0485767573
2632.09777	0.0485364012
2630.66806	0.0484880060
2629.23835	0.0484342612
2627.80864	0.0483792499
2626.37893	0.0483247675
2624.94921	0.0482695661
2623.51950	0.0482107289
2622.08979	0.0481468067
2620.66008	0.0480801798
2619.23037	0.0480160490
2617.80066	0.0479587466
2616.37095	0.0479108505
2614.94124	0.0478727557
2613.51153	0.0478452109
2612.08182	0.0478283316
2610.65211	0.0478198379
2609.22239	0.0478136241
2607.79268	0.0478018038
2606.36297	0.0477800742
2604.93326	0.0477502532
2603.50355	0.0477197133
2602.07384	0.0476971492
2600.64413	0.0476870947
2599.21442	0.0476880781
2597.78471	0.0476936810
2596.35500	0.0476955883
2594.92529	0.0476885960
2593.49557	0.0476725921
2592.06586	0.0476530902
2590.63615	0.0476371162
2589.20644	0.0476290286
2587.77673	0.0476295762
2586.34702	0.0476363078
2584.91731	0.0476461314
2583.48760	0.0476557501
2582.05789	0.0476623066
2580.62818	0.0476630293
2579.19847	0.0476573370
2577.76875	0.0476473421
2576.33904	0.0476382710
2574.90933	0.0476360209
2573.47962	0.0476448573
2572.04991	0.0476651974
2570.62020	0.0476934500
2569.19049	0.0477239601
2567.76078	0.0477525629
2566.33107	0.0477792062
2564.90136	0.0478078425
2563.47165	0.0478433333
2562.04193	0.0478857011
2560.61222	0.0479302742
2559.18251	0.0479697622
2557.75280	0.0479991920
2556.32309	0.0480167419
2554.89338	0.0480240285
2553.46367	0.0480249226
2552.03396	0.0480279885
2550.60425	0.0480457135
2549.17454	0.0480905026
2547.74483	0.0481674299
2546.31511	0.0482696518
2544.88540	0.0483813919
2543.45569	0.0484859794
2542.02598	0.0485734567
2540.59627	0.0486414619
2539.16656	0.0486923382
2537.73685	0.0487310849
2536.30714	0.0487646796
2534.87743	0.0488015786
2533.44772	0.0488489680
2532.01801	0.0489085577
2530.58829	0.0489745326
2529.15858	0.0490384847
2527.72887	0.0490951464
2526.29916	0.0491461605
2524.86945	0.0491972677
2523.43974	0.0492527597
2522.01003	0.0493128709
2520.58032	0.0493750758
2519.15061	0.0494379029
2517.72090	0.0495020114
2516.29119	0.0495684817
2514.86147	0.0496364422
2513.43176	0.0497033373
2512.00205	0.0497668795
2510.57234	0.0498267114
2509.14263	0.0498838797
2507.71292	0.0499394611
2506.28321	0.0499950461
2504.85350	0.0500524715
2503.42379	0.0501149297
2501.99408	0.0501852408
2500.56437	0.0502643995
2499.13465	0.0503504314
2497.70494	0.0504402034
2496.27523	0.0505306348
2494.84552	0.0506207608
2493.41581	0.0507100075
2491.98610	0.0507969446
2490.55639	0.0508783683
2489.12668	0.0509497337
2487.69697	0.0510085076
2486.26726	0.0510573015
2484.83755	0.0511044413
2483.40784	0.0511604398
2481.97812	0.0512325242
2480.54841	0.0513208471
2479.11870	0.0514189489
2477.68899	0.0515193157
2476.25928	0.0516170561
2474.82957	0.0517091602
2473.39986	0.0517914817
2471.97015	0.0518576317
2470.54044	0.0519015342
2469.11073	0.0519236177
2467.68102	0.0519345589
2466.25130	0.0519513935
2464.82159	0.0519900806
2463.39188	0.0520557649
2461.96217	0.0521410741
2460.53246	0.0522313602
2459.10275	0.0523134358
2457.67304	0.0523822941
2456.24333	0.0524397418
2454.81362	0.0524890460
2453.38391	0.0525310859
2451.95420	0.0525647402
2450.52448	0.0525920577
2449.09477	0.0526199341
2447.66506	0.0526575409
2446.23535	0.0527102649
2444.80564	0.0527760275
2443.37593	0.0528464504
2441.94622	0.0529122055
2440.51651	0.0529684089
2439.08680	0.0530169569
2437.65709	0.0530631095
2436.22738	0.0531111695
2434.79766	0.0531623103
2433.36795	0.0532139502
2431.93824	0.0532624386
2430.50853	0.0533057787
2429.07882	0.0533428900
2427.64911	0.0533724539
2426.21940	0.0533928536
2424.78969	0.0534038022
2423.35998	0.0534087196
2421.93027	0.0534151010
2420.50056	0.0534306467
2419.07084	0.0534588695
2417.64113	0.0534968711
2416.21142	0.0535385385
2414.78171	0.0535783656
2413.35200	0.0536147356
2411.92229	0.0536496788
2410.49258	0.0536864400
2409.06287	0.0537260734
2407.63316	0.0537665598
2406.20345	0.0538037978
2404.77374	0.0538339801
2403.34402	0.0538563058
2401.91431	0.0538724847
2400.48460	0.0538860522
2399.05489	0.0539001189
2397.62518	0.0539168231
2396.19547	0.0539368689
2394.76576	0.0539592057
2393.33605	0.0539804250
2391.90634	0.0539959334
2390.47663	0.0540027916
2389.04692	0.0540018529
2387.61720	0.0539962538
2386.18749	0.0539873429
2384.75778	0.0539721325
2383.32807	0.0539439917
2381.89836	0.0538977757
2380.46865	0.0538339801
2379.03894	0.0537585020
2377.60923	0.0536771528
2376.17952	0.0535880588
2374.74981	0.0534796268
2373.32010	0.0533360131
2371.89038	0.0531502552
2370.46067	0.0529329367
2369.03096	0.0527078658
2367.60125	0.0524931364
2366.17154	0.0522882938
2364.74183	0.0520811528
2363.31212	0.0518741719
2361.88241	0.0516990684
2360.45270	0.0515981056
2359.02299	0.0515936166
2357.59328	0.0516797975
2356.16356	0.0518410951
2354.73385	0.0520629436
2353.30414	0.0523225740
2351.87443	0.0525828861
2350.44472	0.0528042950
2349.01501	0.0529576167
2347.58530	0.0530292392
2346.15559	0.0530224852
2344.72588	0.0529582016
2343.29617	0.0528733470
2341.86646	0.0528025106
2340.43674	0.0527563542
2339.00703	0.0527183004
2337.57732	0.0526666306
2336.14761	0.0525983982
2334.71790	0.0525336862
2333.28819	0.0525001474
2331.85848	0.0525122136
2330.42877	0.0525642745
2328.99906	0.0526393950
2327.56935	0.0527251102
2326.13964	0.0528177433
2324.70993	0.0529139303
2323.28021	0.0530040599
2321.85050	0.0530761555
2320.42079	0.0531273782
2318.99108	0.0531678386
2317.56137	0.0532140099
2316.13166	0.0532770976
2314.70195	0.0533580817
2313.27224	0.0534475967
2311.84253	0.0535305440
2310.41282	0.0535923317
2308.98311	0.0536259823
2307.55339	0.0536359437
2306.12368	0.0536349751
2304.69397	0.0536360592
2303.26426	0.0536455177
2301.83455	0.0536615700
2300.40484	0.0536806099
2298.97513	0.0537006445
2297.54542	0.0537221469
2296.11571	0.0537446178
2294.68600	0.0537654459
2293.25629	0.0537817664
2291.82657	0.0537924320
2290.39686	0.0537981130
2288.96715	0.0538000762
2287.53744	0.0537995808
2286.10773	0.0537987873
2284.67802	0.0538013950
2283.24831	0.0538108908
2281.81860	0.0538279116
2280.38889	0.0538489819
2278.95918	0.0538674146
2277.52947	0.0538755618
2276.09975	0.0538682640
2274.67004	0.0538448505
2273.24033	0.0538097769
2271.81062	0.0537706912
2270.38091	0.0537356511
2268.95120	0.0537089072
2267.52149	0.0536909774
2266.09178	0.0536789969
2264.66207	0.0536691844
2263.23236	0.0536581427
2261.80265	0.0536438785
2260.37293	0.0536271557
2258.94322	0.0536114275
2257.51351	0.0536017641
2256.08380	0.0536018796
2254.65409	0.0536121614
2253.22438	0.0536283255
2251.79467	0.0536432937
2250.36496	0.0536507033
2248.93525	0.0536487997
2247.50554	0.0536420047
2246.07583	0.0536392815
2244.64611	0.0536480956
2243.21640	0.0536694787
2241.78669	0.0536959581
2240.35698	0.0537164062
2238.92727	0.0537228808
2237.49756	0.0537137985
2236.06785	0.0536938496
2234.63814	0.0536705628
2233.20843	0.0536513478
2231.77872	0.0536416247
2230.34901	0.0536431484
2228.91929	0.0536526069
2227.48958	0.0536623895
2226.05987	0.0536642373
2224.63016	0.0536545701
2223.20045	0.0536373183
2221.77074	0.0536204502
2220.34103	0.0536105782
2218.91132	0.0536081195
2217.48161	0.0536071807
2216.05190	0.0536001511
2214.62219	0.0535826683
2213.19247	0.0535560511
2211.76276	0.0535270013
2210.33305	0.0535031967
2208.90334	0.0534883216
2207.47363	0.0534793325
2206.04392	0.0534683540
2204.61421	0.0534483604
2203.18450	0.0534199029
2201.75479	0.0533927679
2200.32508	0.0533792712
2198.89537	0.0533850119
2197.46565	0.0534036569
2196.03594	0.0534217469
2194.60623	0.0534278676
2193.17652	0.0534200780
2191.74681	0.0534041263
2190.31710	0.0533864163
2188.88739	0.0533693805
2187.45768	0.0533524901
2186.02797	0.0533357486
2184.59826	0.0533214957
2183.16855	0.0533114858
2181.73883	0.0533049293
2180.30912	0.0532979928
2178.87941	0.0532881021
2177.44970	0.0532753132
2176.01999	0.0532617047
2174.59028	0.0532487705
2173.16057	0.0532353967
2171.73086	0.0532195680
2170.30115	0.0532004312
2168.87144	0.0531793088
2167.44173	0.0531585068
2166.01202	0.0531397238
2164.58230	0.0531231351
2163.15259	0.0531078056
2161.72288	0.0530928299
2160.29317	0.0530781746
2158.86346	0.0530637540
2157.43375	0.0530498028
2156.00404	0.0530376360
2154.57433	0.0530303530
2153.14462	0.0530316383
2151.71491	0.0530421957
2150.28520	0.0530563518
2148.85548	0.0530634895
2147.42577	0.0530539565
2145.99606	0.0530245602
2144.56635	0.0529815108
2143.13664	0.0529362410
2141.70693	0.0529008321
2140.27722	0.0528831147
2138.84751	0.0528854541
2137.41780	0.0529036373
2135.98809	0.0529274121
2134.55838	0.0529443435
2133.12866	0.0529451892
2131.69895	0.0529299565
2130.26924	0.0529070310
2128.83953	0.0528876148
2127.40982	0.0528774410
2125.98011	0.0528748408
2124.55040	0.0528732613
2123.12069	0.0528682880
2121.69098	0.0528603680
2120.26127	0.0528540798
2118.83156	0.0528533198
2117.40184	0.0528579690
2115.97213	0.0528629385
2114.54242	0.0528609529
2113.11271	0.0528459810
2111.68300	0.0528168082
2110.25329	0.0527782217
2108.82358	0.0527390242
2107.39387	0.0527083352
2105.96416	0.0526918806
2104.53445	0.0526896007
2103.10474	0.0526964106
2101.67502	0.0527053550
2100.24531	0.0527097955
2098.81560	0.0527060851
2097.38589	0.0526941605
2095.95618	0.0526766554
2094.52647	0.0526572205
2093.09676	0.0526380502
2091.66705	0.0526190884
2090.23734	0.0525998324
2088.80763	0.0525812469
2087.37792	0.0525669307
2085.94820	0.0525613241
2084.51849	0.0525666699
2083.08878	0.0525811017
2081.65907	0.0525996834
2080.22936	0.0526175983
2078.79965	0.0526323840
2077.36994	0.0526440404
2075.94023	0.0526521653
2074.51052	0.0526535958
2073.08081	0.0526433103
2071.65110	0.0526176840
2070.22138	0.0525777712
2068.79167	0.0525311418
2067.36196	0.0524879657
2065.93225	0.0524574704
2064.50254	0.0524432473
2063.07283	0.0524438024
2061.64312	0.0524551049
2060.21341	0.0524738878
2058.78370	0.0524973422
2057.35399	0.0525223203
2055.92428	0.0525440276
2054.49456	0.0525572039
2053.06485	0.0525576994
2051.63514	0.0525441729
2050.20543	0.0525179394
2048.77572	0.0524826199
2047.34601	0.0524434783
2045.91630	0.0524063297
2044.48659	0.0523771532
2043.05688	0.0523605943
2041.62717	0.0523582287
2040.19746	0.0523678362
2038.76774	0.0523848049
2037.33803	0.0524037592
2035.90832	0.0524211079
2034.47861	0.0524346009
2033.04890	0.0524427481
2031.61919	0.0524442084
2030.18948	0.0524388365
2028.75977	0.0524299257
2027.33006	0.0524235032
2025.90035	0.0524243191
2024.47064	0.0524313860
2023.04092	0.0524387769
2021.61121	0.0524409078
2020.18150	0.0524381064
2018.75179	0.0524370521
2017.32208	0.0524456985
2015.89237	0.0524652712
2014.46266	0.0524881408
2013.03295	0.0525021031
2011.60324	0.0524996519
2010.17353	0.0524836443
2008.74382	0.0524661765
2007.31411	0.0524617061
2005.88439	0.0524780340
2004.45468	0.0525133237
2003.02497	0.0525595993
2001.59526	0.0526091829
2000.16555	0.0526574850
1998.73584	0.0527007058
1997.30613	0.0527332649
1995.87642	0.0527500138
1994.44671	0.0527511239
1993.01700	0.0527460687
1991.58729	0.0527492538
1990.15757	0.0527707376
1988.72786	0.0528108440
1987.29815	0.0528607480
1985.86844	0.0529100709
1984.43873	0.0529518872
1983.00902	0.0529846698
1981.57931	0.0530095845
1980.14960	0.0530293584
1978.71989	0.0530460291
1977.29018	0.0530629940
1975.86047	0.0530842282
1974.43075	0.0531135686
1973.00104	0.0531515442
1971.57133	0.0531943738
1970.14162	0.0532357506
1968.71191	0.0532712750
1967.28220	0.0533007458
1965.85249	0.0533266738
1964.42278	0.0533515811
1962.99307	0.0533762276
1961.56336	0.0534024872
1960.13365	0.0534348637
1958.70393	0.0534792766
1957.27422	0.0535388030
1955.84451	0.0536123663
1954.41480	0.0536958426
1952.98509	0.0537837297
1951.55538	0.0538686141
1950.12567	0.0539411791
1948.69596	0.0539928824
1947.26625	0.0540223718
1945.83654	0.0540392585
1944.40683	0.0540604852
1942.97711	0.0541010611
1941.54740	0.0541649833
1940.11769	0.0542436093
1938.68798	0.0543230437
1937.25827	0.0543928668
1935.82856	0.0544514917
1934.39885	0.0545049869
1932.96914	0.0545606054
1931.53943	0.0546226278
1930.10972	0.0546894744
1928.68001	0.0547568314
1927.25029	0.0548219085
1925.82058	0.0548842922
1924.39087	0.0549435392
1922.96116	0.0549986549
1921.53145	0.0550484881
1920.10174	0.0550939478
1918.67203	0.0551376790
1917.24232	0.0551806204
1915.81261	0.0552212149
1914.38290	0.0552586950
1912.95319	0.0552969128
1911.52347	0.0553436354
1910.09376	0.0554071814
1908.66405	0.0554900914
1907.23434	0.0555859618
1905.80463	0.0556821786
1904.37492	0.0557670258
1902.94521	0.0558363758
1901.51550	0.0558968708
1900.08579	0.0559612662
1898.65608	0.0560382456
1897.22637	0.0561266355
1895.79665	0.0562154017
1894.36694	0.0562936626
1892.93723	0.0563583784
1891.50752	0.0564153530
1890.07781	0.0564737804
1888.64810	0.0565418862
1887.21839	0.0566235110
1885.78868	0.0567189828
1884.35897	0.0568240657
1882.92926	0.0569315329
1881.49955	0.0570347197
1880.06983	0.0571309328
1878.64012	0.0572207868
1877.21041	0.0573046356
1875.78070	0.0573782176
1874.35099	0.0574344993
1872.92128	0.0574674457
1871.49157	0.0574784055
1870.06186	0.0574808605
1868.63215	0.0575017519
1867.20244	0.0575702861
1865.77273	0.0576989576
1864.34301	0.0578740723
1862.91330	0.0580655299
1861.48359	0.0582429804
1860.05388	0.0583889671
1858.62417	0.0585013255
1857.19446	0.0585894808
1855.76475	0.0586661547
1854.33504	0.0587429628
1852.90533	0.0588270165
1851.47562	0.0589180849
1850.04591	0.0590073019
1848.61619	0.0590825677
1847.18648	0.0591392778
1845.75677	0.0591882542
1844.32706	0.0592510886
1842.89735	0.0593438484
1841.46764	0.0594668426
1840.03793	0.0596098863
1838.60822	0.0597627498
1837.17851	0.0599162616
1835.74880	0.0600601099
1834.31909	0.0601832494
1832.88938	0.0602790900
1831.45966	0.0603490435
1830.02995	0.0604029149
1828.60024	0.0604571514
1827.17053	0.0605316870
1825.74082	0.0606434420
1824.31111	0.0607975014
1822.88140	0.0609830432
1821.45169	0.0611798428
1820.02198	0.0613688864
1818.59227	0.0615387447
1817.16256	0.0616840534
1815.73284	0.0618015379
1814.30313	0.0618921854
1812.87342	0.0619671158
1811.44371	0.0620480925
1810.01400	0.0621567145
1808.58429	0.0622996017
1807.15458	0.0624637567
1805.72487	0.0626264513
1804.29516	0.0627679974
1802.86545	0.0628809556
1801.43574	0.0629736558
1800.00602	0.0630652905
1798.57631	0.0631712973
1797.14660	0.0632904097
1795.71689	0.0634080544
1794.28718	0.0635147393
1792.85747	0.0636234581
1791.42776	0.0637638867
1789.99805	0.0639536753
1788.56834	0.0641808361
1787.13863	0.0644177347
1785.70892	0.0646441206
1784.27920	0.0648552328
1782.84949	0.0650543943
1781.41978	0.0652440861
1779.99007	0.0654231682
1778.56036	0.0655892044
1777.13065	0.0657400861
1775.70094	0.0658742487
1774.27123	0.0659974515
1772.84152	0.0661310852
1771.41181	0.0663080364
1769.98210	0.0665460303
1768.55238	0.0668305010
1767.12267	0.0671308041
1765.69296	0.0674263909
1764.26325	0.0677149445
1762.83354	0.0680053532
1761.40383	0.0683082342
1759.97412	0.0686319992
1758.54441	0.0689784810
1757.11470	0.0693399161
1755.68499	0.0697010383
1754.25528	0.0700505748
1752.82556	0.0703949630
1751.39585	0.0707597435
1749.96614	0.0711702630
1748.53643	0.0716272593
1747.10672	0.0721068978
1745.67701	0.0725895464
1744.24730	0.0730734989
1742.81759	0.0735634416
1741.38788	0.0740532130
1739.95817	0.0745283738
1738.52846	0.0749807730
1737.09874	0.0754196271
1735.66903	0.0758689791
1734.23932	0.0763568804
1732.80961	0.0769042522
1731.37990	0.0775158927
1729.95019	0.0781837255
1728.52048	0.0788964108
1727.09077	0.0796459317
1725.66106	0.0804262161
1724.23135	0.0812286660
1722.80164	0.0820444748
1721.37192	0.0828758329
1719.94221	0.0837522820
1718.51250	0.0847292319
1717.08279	0.0858383775
1715.65308	0.0870247185
1714.22337	0.0881819576
1712.79366	0.0892561600
1711.36395	0.0902733952
1709.93424	0.0912909135
1708.50453	0.0923541412
1707.07482	0.0934863985
1705.64510	0.0947054327
1704.21539	0.0960523784
1702.78568	0.0976078063
1701.35597	0.0994717479
1699.92626	0.1016952470
1698.49655	0.1041911766
1697.06684	0.1067354828
1695.63713	0.1091142073
1694.20742	0.1112447679
1692.77771	0.1131540537
1691.34800	0.1149082035
1689.91828	0.1165853515
1688.48857	0.1182894707
1687.05886	0.1201636866
1685.62915	0.1223396733
1684.19944	0.1247871742
1682.76973	0.1272446215
1681.34002	0.1294496059
1679.91031	0.1313684732
1678.48060	0.1331362128
1677.05089	0.1348994225
1675.62118	0.1367375553
1674.19147	0.1386662722
1672.76175	0.1406820863
1671.33204	0.1427868009
1669.90233	0.1449547410
1668.47262	0.1471078396
1667.04291	0.1491695344
1665.61320	0.1511342674
1664.18349	0.1530517340
1662.75378	0.1549351066
1661.32407	0.1566991657
1659.89436	0.1582026631
1658.46465	0.1593331397
1657.03493	0.1600170434
1655.60522	0.1601647586
1654.17551	0.1596753299
1652.74580	0.1585842818
1651.31609	0.1571519822
1649.88638	0.1556349397
1648.45667	0.1540820450
1647.02696	0.1524568647
1645.59725	0.1508203894
1644.16754	0.1493167132
1642.73783	0.1480184495
1641.30811	0.1468472332
1639.87840	0.1456184238
1638.44869	0.1441300660
1637.01898	0.1422843933
1635.58927	0.1402090639
1634.15956	0.1381832212
1632.72985	0.1363604069
1631.30014	0.1346546561
1629.87043	0.1328625977
1628.44072	0.1307893693
1627.01101	0.1283179522
1625.58129	0.1254670918
1624.15158	0.1224033237
1622.72187	0.1193371937
1621.29216	0.1163715646
1619.86245	0.1134572178
1618.43274	0.1104971841
1617.00303	0.1075071841
1615.57332	0.1046736538
1614.14361	0.1022112519
1612.71390	0.1001770720
1611.28419	0.0984616280
1609.85447	0.0969177112
1608.42476	0.0954692215
1606.99505	0.0941279083
1605.56534	0.0929390267
1604.13563	0.0919227004
1602.70592	0.0910662338
1601.27621	0.0903514475
1599.84650	0.0897688568
1598.41679	0.0893061757
1596.98708	0.0889389589
1595.55737	0.0886432901
1594.12765	0.0884136930
1592.69794	0.0882618204
1591.26823	0.0881981999
1589.83852	0.0882215723
1588.40881	0.0883263126
1586.97910	0.0885114297
1585.54939	0.0887753516
1584.11968	0.0891042501
1582.68997	0.0894756764
1581.26026	0.0898755640
1579.83055	0.0903137773
1578.40083	0.0908178613
1576.97112	0.0914075822
1575.54141	0.0920693278
1574.11170	0.0927677453
1572.68199	0.0934869125
1571.25228	0.0942469165
1569.82257	0.0950764939
1568.39286	0.0959703252
1566.96315	0.0968781039
1565.53344	0.0977445915
1564.10373	0.0985592529
1562.67401	0.0993787348
1561.24430	0.1003271267
1559.81459	0.1015492901
1558.38488	0.1030500978
1556.95517	0.1045847908
1555.52546	0.1058898643
1554.09575	0.1069068685
1552.66604	0.1076904833
1551.23633	0.1082774028
1549.80662	0.1086614132
1548.37691	0.1088209152
1546.94719	0.1087426022
1545.51748	0.1084099188
1544.08777	0.1077724174
1542.65806	0.1067655385
1541.22835	0.1054394245
1539.79864	0.1040526330
1538.36893	0.1028604507
1536.93922	0.1018774137
1535.50951	0.1009639725
1534.07980	0.1000032052
1532.65009	0.0989698768
1531.22037	0.0979054570
1529.79066	0.0968529657
1528.36095	0.0958130509
1526.93124	0.0947519913
1525.50153	0.0936398804
1524.07182	0.0924792290
1522.64211	0.0913089290
1521.21240	0.0901797563
1519.78269	0.0891229734
1518.35298	0.0881340727
1516.92327	0.0871846378
1515.49356	0.0862458199
1514.06384	0.0852961764
1512.63413	0.0843013898
1511.20442	0.0831807032
1509.77471	0.0818006545
1508.34500	0.0800785720
1506.91529	0.0781989992
1505.48558	0.0765915513
1504.05587	0.0754989386
1502.62616	0.0748049915
1501.19645	0.0742734969
1499.76674	0.0737348571
1498.33702	0.0731308386
1496.90731	0.0724994540
1495.47760	0.0719109848
1494.04789	0.0713943094
1492.61818	0.0709268227
1491.18847	0.0704821870
1489.75876	0.0700746924
1488.32905	0.0697596073
1486.89934	0.0695837066
1485.46963	0.0695426911
1484.03992	0.0695941895
1482.61020	0.0696983635
1481.18049	0.0698385239
1479.75078	0.0700188503
1478.32107	0.0702522546
1476.89136	0.0705509409
1475.46165	0.0709239617
1474.03194	0.0713694394
1472.60223	0.0718569830
1471.17252	0.0723287985
1469.74281	0.0727329403
1468.31310	0.0730494559
1466.88338	0.0732881054
1465.45367	0.0734754205
1464.02396	0.0736399889
1462.59425	0.0737992227
1461.16454	0.0739536658
1459.73483	0.0740922317
1458.30512	0.0742014796
1456.87541	0.0742737725
1455.44570	0.0743130296
1454.01599	0.0743244812
1452.58628	0.0743029863
1451.15656	0.0742308348
1449.72685	0.0740874410
1448.29714	0.0738655925
1446.86743	0.0735857710
1445.43772	0.0732903183
1444.00801	0.0730168372
1442.57830	0.0727741346
1441.14859	0.0725415424
1439.71888	0.0722850487
1438.28917	0.0719813704
1436.85946	0.0716427714
1435.42974	0.0713204741
1434.00003	0.0710718036
1432.57032	0.0709242001
1431.14061	0.0708740056
1429.71090	0.0709069222
1428.28119	0.0710129365
1426.85148	0.0711863339
1425.42177	0.0714190230
1423.99206	0.0716965348
1422.56235	0.0720023662
1421.13264	0.0723239109
1419.70292	0.0726577193
1418.27321	0.0730054155
1416.84350	0.0733649433
1415.41379	0.0737285689
1413.98408	0.0740874112
1412.55437	0.0744356066
1411.12466	0.0747679994
1409.69495	0.0750783384
1408.26524	0.0753620788
1406.83553	0.0756191984
1405.40582	0.0758531988
1403.97610	0.0760608017
1402.54639	0.0762270316
1401.11668	0.0763281509
1399.68697	0.0763428062
1398.25726	0.0762622952
1396.82755	0.0760962963
1395.39784	0.0758710429
1393.96813	0.0756164864
1392.53842	0.0753486827
1391.10871	0.0750627965
1389.67900	0.0747414008
1388.24928	0.0743699521
1386.81957	0.0739524066
1385.38986	0.0735129714
1383.96015	0.0730813071
1382.53044	0.0726745203
1381.10073	0.0722939745
1379.67102	0.0719357282
1378.24131	0.0716016814
1376.81160	0.0713040680
1375.38189	0.0710608587
1373.95218	0.0708852187
1372.52246	0.0707750395
1371.09275	0.0707093254
1369.66304	0.0706570819
1368.23333	0.0705908984
1366.80362	0.0704988167
1365.37391	0.0703900382
1363.94420	0.0702916905
1362.51449	0.0702354237
1361.08478	0.0702397451
1359.65507	0.0703010336
1358.22536	0.0703998953
1356.79565	0.0705140382
1355.36593	0.0706256777
1353.93622	0.0707224533
1352.50651	0.0707979500
1351.07680	0.0708523989
1349.64709	0.0708906800
1348.21738	0.0709192976
1346.78767	0.0709433109
1345.35796	0.0709645227
1343.92825	0.0709843710
1342.49854	0.0710078999
1341.06883	0.0710459203
1339.63911	0.0711127818
1338.20940	0.0712152421
1336.77969	0.0713453740
1335.34998	0.0714842603
1333.92027	0.0716159046
1332.49056	0.0717387348
1331.06085	0.0718668178
1329.63114	0.0720189512
1328.20143	0.0722053498
1326.77172	0.0724207535
1325.34201	0.0726500377
1323.91229	0.0728790462
1322.48258	0.0731025040
1321.05287	0.0733228028
1319.62316	0.0735430568
1318.19345	0.0737609044
1316.76374	0.0739677846
1315.33403	0.0741553530
1313.90432	0.0743221492
1312.47461	0.0744747818
1311.04490	0.0746225491
1309.61519	0.0747703984
1308.18547	0.0749170929
1306.75576	0.0750579983
1305.32605	0.0751914978
1303.89634	0.0753208473
1302.46663	0.0754518732
1301.03692	0.0755873397
1299.60721	0.0757252574
1298.17750	0.0758600384
1296.74779	0.0759863257
1295.31808	0.0761019439
1293.88837	0.0762075633
1292.45865	0.0763041675
1291.02894	0.0763912946
1289.59923	0.0764668211
1288.16952	0.0765307248
1286.73981	0.0765883699
1285.31010	0.0766507834
1283.88039	0.0767289847
1282.45068	0.0768266916
1281.02097	0.0769365132
1279.59126	0.0770446509
1278.16155	0.0771400258
1276.73183	0.0772244707
1275.30212	0.0773126408
1273.87241	0.0774255171
1272.44270	0.0775790587
1271.01299	0.0777773932
1269.58328	0.0780151933
1268.15357	0.0782867521
1266.72386	0.0785935372
1265.29415	0.0789421350
1263.86444	0.0793368816
1262.43473	0.0797711760
1261.00501	0.0802302212
1259.57530	0.0807000101
1258.14559	0.0811736733
1256.71588	0.0816484839
1255.28617	0.0821151510
1253.85646	0.0825514197
1252.42675	0.0829273686
1250.99704	0.0832167268
1249.56733	0.0834070146
1248.13762	0.0834998116
1246.70791	0.0835032314
1245.27819	0.0834243298
1243.84848	0.0832680538
1242.41877	0.0830425024
1240.98906	0.0827647522
1239.55935	0.0824593902
1238.12964	0.0821477398
1236.69993	0.0818387493
1235.27022	0.0815256685
1233.84051	0.0811961740
1232.41080	0.0808450431
1230.98109	0.0804800838
1229.55137	0.0801161155
1228.12166	0.0797620267
1226.69195	0.0794142634
1225.26224	0.0790595710
1223.83253	0.0786857381
1222.40282	0.0782902241
1220.97311	0.0778809115
1219.54340	0.0774717405
1218.11369	0.0770760924
1216.68398	0.0767027885
1215.25427	0.0763565078
1213.82455	0.0760401338
1212.39484	0.0757569373
1210.96513	0.0755110383
1209.53542	0.0753046572
1208.10571	0.0751353875
1206.67600	0.0749979094
1205.24629	0.0748882443
1203.81658	0.0748086795
1202.38687	0.0747682750
1200.95716	0.0747799277
1199.52745	0.0748557374
1198.09774	0.0750039071
1196.66802	0.0752268359
1195.23831	0.0755199715
1193.80860	0.0758707076
1192.37889	0.0762605667
1190.94918	0.0766717196
1189.51947	0.0770934671
1188.08976	0.0775263533
1186.66005	0.0779782608
1185.23034	0.0784589872
1183.80063	0.0789768174
1182.37092	0.0795387551
1180.94120	0.0801520422
1179.51149	0.0808215365
1178.08178	0.0815440938
1176.65207	0.0823048651
1175.22236	0.0830820501
1173.79265	0.0838562697
1172.36294	0.0846200064
1170.93323	0.0853783116
1169.50352	0.0861424953
1168.07381	0.0869215876
1166.64410	0.0877175704
1165.21438	0.0885270163
1163.78467	0.0893433467
1162.35496	0.0901583731
1160.92525	0.0909635127
1159.49554	0.0917516649
1158.06583	0.0925215110
1156.63612	0.0932796374
1155.20641	0.0940372199
1153.77670	0.0948045030
1152.34699	0.0955849215
1150.91728	0.0963755026
1149.48756	0.0971723720
1148.05785	0.0979780778
1146.62814	0.0988057554
1145.19843	0.0996770859
1143.76872	0.1006138921
1142.33901	0.1016305089
1140.90930	0.1027290225
1139.47959	0.1039012820
1138.04988	0.1051349789
1136.62017	0.1064198762
1135.19046	0.1077511534
1133.76074	0.1091282219
1132.33103	0.1105507389
1130.90132	0.1120139062
1129.47161	0.1135054529
1128.04190	0.1150071323
1126.61219	0.1164996698
1125.18248	0.1179696023
1123.75277	0.1194135174
1122.32306	0.1208379045
1120.89335	0.1222528443
1119.46364	0.1236669794
1118.03392	0.1250822693
1116.60421	0.1264928132
1115.17450	0.1278838217
1113.74479	0.1292349696
1112.31508	0.1305277348
1110.88537	0.1317534745
1109.45566	0.1329158098
1108.02595	0.1340223700
1106.59624	0.1350696385
1105.16653	0.1360358447
1103.73682	0.1368871778
1102.30710	0.1375976205
1100.87739	0.1381662488
1099.44768	0.1386199743
1098.01797	0.1389997005
1096.58826	0.1393410712
1095.15855	0.1396616250
1093.72884	0.1399608552
1092.29913	0.1402261257
1090.86942	0.1404363513
1089.43971	0.1405644566
1088.01000	0.1405799836
1086.58028	0.1404590309
1085.15057	0.1401935518
1083.72086	0.1397928596
1082.29115	0.1392744631
1080.86144	0.1386519521
1079.43173	0.1379295737
1078.00202	0.1371063739
1076.57231	0.1361815035
1075.14260	0.1351558566
1073.71289	0.1340315342
1072.28318	0.1328144372
1070.85346	0.1315186769
1069.42375	0.1301660389
1067.99404	0.1287747771
1066.56433	0.1273474842
1065.13462	0.1258684546
1063.70491	0.1243162602
1062.27520	0.1226804554
1060.84549	0.1209674701
1059.41578	0.1191903651
1057.98607	0.1173527613
1056.55636	0.1154443845
1055.12664	0.1134530827
1053.69693	0.1113845780
1052.26722	0.1092709824
1050.83751	0.1071617976
1049.40780	0.1051023006
1047.97809	0.1031161025
1046.54838	0.1012046188
1045.11867	0.0993595645
1043.68896	0.0975766927
1042.25925	0.0958594680
1040.82954	0.0942147896
1039.39983	0.0926486999
1037.97011	0.0911670998
1036.54040	0.0897790790
1035.11069	0.0884948373
1033.68098	0.0873171687
1032.25127	0.0862336308
1030.82156	0.0852198526
1029.39185	0.0842524543
1027.96214	0.0833231509
1026.53243	0.0824408606
1025.10272	0.0816231221
1023.67301	0.0808834657
1022.24329	0.0802278519
1020.81358	0.0796611086
1019.38387	0.0791945830
1017.95416	0.0788482353
1016.52445	0.0786426738
1015.09474	0.0785894096
1013.66503	0.0786865130
1012.23532	0.0789213628
1010.80561	0.0792793930
1009.37590	0.0797512382
1007.94619	0.0803339556
1006.51647	0.0810257196
1005.08676	0.0818180889
1003.65705	0.0826918781
1002.22734	0.0836212113
1000.79763	0.0845818818
999.36792	0.0855549276
997.93821	0.0865213126
996.50850	0.0874520838
995.07879	0.0883031860
993.64908	0.0890236944
992.21937	0.0895708278
990.78965	0.0899222717
989.35994	0.0900765732
987.93023	0.0900430977
986.50052	0.0898335725
985.07081	0.0894586965
983.64110	0.0889299065
982.21139	0.0882603973
980.78168	0.0874635726
979.35197	0.0865519270
977.92226	0.0855382830
976.49255	0.0844388306
975.06283	0.0832742900
973.63312	0.0820665509
972.20341	0.0808347836
970.77370	0.0795945004
969.34399	0.0783594474
967.91428	0.0771455243
966.48457	0.0759720206
965.05486	0.0748595819
963.62515	0.0738270804
962.19544	0.0728881657
960.76573	0.0720495433
959.33601	0.0713125169
957.90630	0.0706742331
956.47659	0.0701286271
955.04688	0.0696663633
953.61717	0.0692763627
952.18746	0.0689482912
950.75775	0.0686759874
949.32804	0.0684579462
947.89833	0.0682936609
946.46862	0.0681789219
945.03891	0.0681040585
943.60919	0.0680557936
942.17948	0.0680206120
940.74977	0.0679858625
939.32006	0.0679393634
937.89035	0.0678691119
936.46064	0.0677672550
935.03093	0.0676318482
933.60122	0.0674677193
932.17151	0.0672814101
930.74180	0.0670771524
929.31209	0.0668567941
927.88237	0.0666239113
926.45266	0.0663859993
925.02295	0.0661540851
923.59324	0.0659382120
922.16353	0.0657428578
920.73382	0.0655658692
919.30411	0.0653994530
917.87440	0.0652325004
916.44469	0.0650528893
915.01498	0.0648509637
913.58527	0.0646248013
912.15555	0.0643854886
910.72584	0.0641568899
909.29613	0.0639677122
907.86642	0.0638363585
906.43671	0.0637613982
905.00700	0.0637237504
903.57729	0.0637011454
902.14758	0.0636856779
900.71787	0.0636909828
899.28816	0.0637440756
897.85845	0.0638703331
896.42873	0.0640810430
894.99902	0.0643714964
893.56931	0.0647283867
892.13960	0.0651373044
890.70989	0.0655877590
889.28018	0.0660705939
887.85047	0.0665717721
886.42076	0.0670682713
884.99105	0.0675286502
883.56134	0.0679235905
882.13163	0.0682402551
880.70192	0.0684904978
879.27220	0.0687071308
877.84249	0.0689284503
876.41278	0.0691788495
874.98307	0.0694588497
873.55336	0.0697479397
872.12365	0.0700177550
870.69394	0.0702448860
869.26423	0.0704146922
867.83452	0.0705173537
866.40481	0.0705437586
864.97510	0.0704877302
863.54538	0.0703561828
862.11567	0.0701696128
860.68596	0.0699513927
859.25625	0.0697086081
857.82654	0.0694248304
856.39683	0.0690761358
854.96712	0.0686562210
853.53741	0.0681892186
852.10770	0.0677139759
850.67799	0.0672557503
849.24828	0.0668109059
847.81856	0.0663577318
846.38885	0.0658814162
844.95914	0.0653897375
843.52943	0.0649065152
842.09972	0.0644535199
840.67001	0.0640390143
839.24030	0.0636614338
837.81059	0.0633198470
836.38088	0.0630165115
834.95117	0.0627504662
833.52146	0.0625099689
832.09174	0.0622725300
830.66203	0.0620157234
829.23232	0.0617263056
827.80261	0.0614025481
826.37290	0.0610478111
824.94319	0.0606672540
823.51348	0.0602708235
822.08377	0.0598802492
820.65406	0.0595287383
819.22435	0.0592489839
817.79464	0.0590566173
816.36492	0.0589413866
814.93521	0.0588734671
813.50550	0.0588179454
812.07579	0.0587486550
810.64608	0.0586547181
809.21637	0.0585397743
807.78666	0.0584158860
806.35695	0.0582968853
804.92724	0.0581907965
803.49753	0.0580980480
802.06782	0.0580131598
800.63810	0.0579296164
799.20839	0.0578442588
797.77868	0.0577584431
796.34897	0.0576782636
794.91926	0.0576111600
793.48955	0.0575621873
792.05984	0.0575290285
790.63013	0.0575056225
789.20042	0.0574895479
787.77071	0.0574893393
786.34100	0.0575205460
784.91128	0.0575884916
783.48157	0.0576755740
782.05186	0.0577431582
780.62215	0.0577549562
779.19244	0.0577014424
777.76273	0.0576092117
776.33302	0.0575262494
774.90331	0.0574937724
773.47360	0.0575234108
772.04389	0.0575919785
770.61418	0.0576566234
769.18446	0.0576791205
767.75475	0.0576445051
766.32504	0.0575656146
764.89533	0.0574723184
763.46562	0.0573961511
762.03591	0.0573590435
760.60620	0.0573687330
759.17649	0.0574220307
757.74678	0.0575066879
756.31707	0.0576055460
754.88736	0.0576991662
753.45764	0.0577701814
752.02793	0.0578082986
750.59822	0.0578153059
749.16851	0.0578080639
747.73880	0.0578132682
746.30909	0.0578532517
744.87938	0.0579281971
743.44967	0.0580083355
742.01996	0.0580473319
740.59025	0.0580095798
739.16054	0.0578956306
737.73082	0.0577461459
736.30111	0.0576218627
734.87140	0.0575733595
733.44169	0.0576197617
732.01198	0.0577446669
730.58227	0.0579110421
729.15256	0.0580836087
727.72285	0.0582464151
726.29314	0.0584051348
724.86343	0.0585748479
723.43372	0.0587668791
722.00401	0.0589806437
720.57429	0.0592049845
719.14458	0.0594232678
717.71487	0.0596181713
716.28516	0.0597783141
714.85545	0.0599041693
713.42574	0.0600075275
711.99603	0.0601022318
710.56632	0.0601948425
709.13661	0.0602825098
707.70690	0.0603633225
706.27719	0.0604437031
704.84747	0.0605332628
703.41776	0.0606290624
701.98805	0.0607084222
700.55834	0.0607392043
699.12863	0.0607037209
697.69892	0.0606114455
696.26921	0.0604930334
694.83950	0.0603797138
693.40979	0.0602856614
691.98008	0.0602037348
690.55037	0.0601148345
689.12065	0.0600010790
687.69094	0.0598585308
686.26123	0.0597012937
684.83152	0.0595572107
683.40181	0.0594553836
681.97210	0.0594133846
680.54239	0.0594321713
679.11268	0.0594986342
677.68297	0.0595918931
676.25326	0.0596884936
674.82355	0.0597689599
673.39383	0.0598217770
671.96412	0.0598440915
670.53441	0.0598404966
669.10470	0.0598227270
667.67499	0.0598064475
666.24528	0.0598022602
664.81557	0.0598080829
663.38586	0.0598125383
661.95615	0.0598037168
660.52644	0.0597729385
659.09673	0.0597166792
657.66701	0.0596337318
656.23730	0.0595214665
654.80759	0.0593746528
653.37788	0.0591923483
651.94817	0.0589848831
650.51846	0.0587731041
649.08875	0.0585780144
647.65904	0.0584144033
646.22933	0.0582934543
644.79962	0.0582279712
643.36991	0.0582295135
641.94019	0.0582948439
640.51048	0.0583955422
639.08077	0.0584854521
637.65106	0.0585248731
636.22135	0.0584997572
634.79164	0.0584172755
633.36193	0.0582792722
631.93222	0.0580606163
630.50251	0.0577147156
629.07280	0.0572048984
627.64309	0.0565376393
626.21337	0.0557749718
624.78366	0.0550131425
623.35395	0.0543409660
621.92424	0.0538040623
620.49453	0.0533996746
619.06482	0.0530932397
617.63511	0.0528312474
616.20540	0.0525576398
614.77569	0.0522446744
613.34598	0.0519207604
611.91627	0.0516575798
610.48655	0.0515136346
609.05684	0.0514802635
607.62713	0.0514913090
606.19742	0.0514870510
604.76771	0.0514706746
603.33800	0.0514976308
601.90829	0.0516193584
600.47858	0.0518369228
599.04887	0.0521020517
