3997.47168	0.0545869619
3996.04197	0.0545849055
3994.61226	0.0545793287
3993.18255	0.0545747504
3991.75284	0.0545808561
3990.32312	0.0546065718
3988.89341	0.0546552725
3987.46370	0.0547222421
3986.03399	0.0547950640
3984.60428	0.0548565350
3983.17457	0.0548907816
3981.74486	0.0548897833
3980.31515	0.0548579730
3978.88544	0.0548091307
3977.45573	0.0547601208
3976.02602	0.0547228269
3974.59630	0.0547014251
3973.16659	0.0546929389
3971.73688	0.0546888858
3970.30717	0.0546799898
3968.87746	0.0546602346
3967.44775	0.0546305552
3966.01804	0.0545987636
3964.58833	0.0545758680
3963.15862	0.0545689985
3961.72891	0.0545787141
3960.29920	0.0545971468
3958.86948	0.0546131171
3957.43977	0.0546171963
3956.01006	0.0546048395
3954.58035	0.0545767471
3953.15064	0.0545367710
3951.72093	0.0544906072
3950.29122	0.0544462651
3948.86151	0.0544131100
3947.43180	0.0543997586
3946.00209	0.0544117913
3944.57238	0.0544503443
3943.14266	0.0545130000
3941.71295	0.0545934476
3940.28324	0.0546777323
3938.85353	0.0547418259
3937.42382	0.0547575951
3935.99411	0.0547065325
3934.56440	0.0545934215
3933.13469	0.0544517525
3931.70498	0.0543295853
3930.27527	0.0542643182
3928.84556	0.0542652272
3927.41585	0.0543179661
3925.98613	0.0543981157
3924.55642	0.0544796027
3923.12671	0.0545401163
3921.69700	0.0545677654
3920.26729	0.0545676202
3918.83758	0.0545584038
3917.40787	0.0545602515
3915.97816	0.0545786843
3914.54845	0.0545999072
3913.11874	0.0546010211
3911.68903	0.0545615442
3910.25931	0.0544675104
3908.82960	0.0543136261
3907.39989	0.0541074239
3905.97018	0.0538807772
3904.54047	0.0536960773
3903.11076	0.0536314324
3901.68105	0.0537304953
3900.25134	0.0539572425
3898.82163	0.0542160124
3897.39192	0.0544157811
3895.96221	0.0545113571
3894.53249	0.0545074530
3893.10278	0.0544435382
3891.67307	0.0543747917
3890.24336	0.0543425195
3888.81365	0.0543510877
3887.38394	0.0543701872
3885.95423	0.0543632321
3884.52452	0.0543163233
3883.09481	0.0542501509
3881.66510	0.0542032830
3880.23539	0.0541992933
3878.80567	0.0542276539
3877.37596	0.0542539917
3875.94625	0.0542483889
3874.51654	0.0542067438
3873.08683	0.0541564226
3871.65712	0.0541346930
3870.22741	0.0541574769
3868.79770	0.0542028435
3867.36799	0.0542370118
3865.93828	0.0542486832
3864.50857	0.0542546958
3863.07885	0.0542739369
3861.64914	0.0542993695
3860.21943	0.0542977564
3858.78972	0.0542308800
3857.36001	0.0540797450
3855.93030	0.0538711064
3854.50059	0.0537051558
3853.07088	0.0537188351
3851.64117	0.0539490059
3850.21146	0.0542847030
3848.78175	0.0545898080
3847.35203	0.0547857285
3845.92232	0.0548455194
3844.49261	0.0547767691
3843.06290	0.0546209253
3841.63319	0.0544518419
3840.20348	0.0543529056
3838.77377	0.0543736778
3837.34406	0.0544977672
3835.91435	0.0546617024
3834.48464	0.0548076332
3833.05493	0.0549145751
3831.62521	0.0549846105
3830.19550	0.0550191328
3828.76579	0.0550100543
3827.33608	0.0549490936
3825.90637	0.0548412018
3824.47666	0.0547070913
3823.04695	0.0545758083
3821.61724	0.0544746742
3820.18753	0.0544237606
3818.75782	0.0544373170
3817.32811	0.0545240641
3815.89839	0.0546773188
3814.46868	0.0548676364
3813.03897	0.0550493412
3811.60926	0.0551766232
3810.17955	0.0552155115
3808.74984	0.0551523753
3807.32013	0.0550019741
3805.89042	0.0548076332
3804.46071	0.0546286441
3803.03100	0.0545171648
3801.60129	0.0545047522
3800.17157	0.0545976460
3798.74186	0.0547780022
3797.31215	0.0550090261
3795.88244	0.0552470833
3794.45273	0.0554566793
3793.02302	0.0556181483
3791.59331	0.0557249673
3790.16360	0.0557804778
3788.73389	0.0557947531
3787.30418	0.0557886288
3785.87447	0.0557919256
3784.44475	0.0558321364
3783.01504	0.0559156872
3781.58533	0.0560205169
3780.15562	0.0561088733
3778.72591	0.0561527088
3777.29620	0.0561472587
3775.86649	0.0561064295
3774.43678	0.0560460202
3773.00707	0.0559789911
3771.57736	0.0559187494
3770.14765	0.0558829457
3768.71794	0.0558888055
3767.28822	0.0559412725
3765.85851	0.0560267605
3764.42880	0.0561203919
3762.99909	0.0561962798
3761.56938	0.0562362298
3760.13967	0.0562338158
3758.70996	0.0561923012
3757.28025	0.0561157688
3755.85054	0.0560018159
3754.42083	0.0558464415
3752.99112	0.0556627885
3751.56140	0.0554933846
3750.13169	0.0553958304
3748.70198	0.0554078296
3747.27227	0.0555349812
3745.84256	0.0557662286
3744.41285	0.0560726449
3742.98314	0.0563962534
3741.55343	0.0566655062
3740.12372	0.0568321496
3738.69401	0.0568902194
3737.26430	0.0568745807
3735.83458	0.0568499416
3734.40487	0.0568815134
3732.97516	0.0569901764
3731.54545	0.0571443066
3730.11574	0.0572996736
3728.68603	0.0574298315
3727.25632	0.0575303882
3725.82661	0.0576145612
3724.39690	0.0577051677
3722.96719	0.0578210726
3721.53748	0.0579628386
3720.10776	0.0581107140
3718.67805	0.0582360849
3717.24834	0.0583143234
3715.81863	0.0583353750
3714.38892	0.0583165437
3712.95921	0.0583131984
3711.52950	0.0584006347
3710.09979	0.0586111955
3708.67008	0.0588948689
3707.24037	0.0591689423
3705.81066	0.0593913607
3704.38094	0.0595766008
3702.95123	0.0597677119
3701.52152	0.0599988773
3700.09181	0.0602691546
3698.66210	0.0605479926
3697.23239	0.0608001836
3695.80268	0.0610106587
3694.37297	0.0611943863
3692.94326	0.0613964051
3691.51355	0.0616749264
3690.08384	0.0620572306
3688.65412	0.0624986999
3687.22441	0.0629097670
3685.79470	0.0632339343
3684.36499	0.0634728521
3682.93528	0.0636518374
3681.50557	0.0637970194
3680.07586	0.0639412254
3678.64615	0.0641412288
3677.21644	0.0644716322
3675.78673	0.0649770349
3674.35702	0.0656308383
3672.92730	0.0663655177
3671.49759	0.0671392009
3670.06788	0.0679451451
3668.63817	0.0687727556
3667.20846	0.0695945844
3665.77875	0.0703926533
3664.34904	0.0711730346
3662.91933	0.0719527155
3661.48962	0.0727398545
3660.05991	0.0735293478
3658.63020	0.0743122250
3657.20048	0.0750811994
3655.77077	0.0758305714
3654.34106	0.0765622184
3652.91135	0.0773121417
3651.48164	0.0781716034
3650.05193	0.0792516172
3648.62222	0.0805700123
3647.19251	0.0819886699
3645.76280	0.0833441317
3644.33309	0.0845864117
3642.90338	0.0857554302
3641.47366	0.0868981257
3640.04395	0.0880311877
3638.61424	0.0891450271
3637.18453	0.0902193263
3635.75482	0.0912364572
3634.32511	0.0922018513
3632.89540	0.0931733102
3631.46569	0.0942707136
3630.03598	0.0956126675
3628.60627	0.0971771702
3627.17656	0.0987637714
3625.74684	0.1001754701
3624.31713	0.1013790667
3622.88742	0.1024709493
3621.45771	0.1035686731
3620.02800	0.1047378629
3618.59829	0.1059698462
3617.16858	0.1072082818
3615.73887	0.1084079593
3614.30916	0.1095703468
3612.87945	0.1107388586
3611.44974	0.1119689122
3610.02003	0.1132863909
3608.59031	0.1146574840
3607.16060	0.1160082370
3605.73089	0.1172820851
3604.30118	0.1184757128
3602.87147	0.1196227446
3601.44176	0.1207564026
3600.01205	0.1218943000
3598.58234	0.1230447739
3597.15263	0.1242108494
3595.72292	0.1253786385
3594.29321	0.1265163273
3592.86349	0.1276053190
3591.43378	0.1286780834
3590.00407	0.1298123449
3588.57436	0.1310732067
3587.14465	0.1324419081
3585.71494	0.1338177919
3584.28523	0.1351032108
3582.85552	0.1362737715
3581.42581	0.1373663545
3579.99610	0.1384333372
3578.56639	0.1395122558
3577.13667	0.1406154186
3575.70696	0.1417256445
3574.27725	0.1428091973
3572.84754	0.1438432932
3571.41783	0.1448481232
3569.98812	0.1458895952
3568.55841	0.1470421404
3567.12870	0.1483247429
3565.69899	0.1496706903
3564.26928	0.1509808004
3562.83957	0.1521998048
3561.40985	0.1533310860
3559.98014	0.1544080079
3558.55043	0.1554704607
3557.12072	0.1565554887
3555.69101	0.1576853693
3554.26130	0.1588532180
3552.83159	0.1600237489
3551.40188	0.1611607820
3549.97217	0.1622580588
3548.54246	0.1633455306
3547.11275	0.1644644737
3545.68303	0.1656339765
3544.25332	0.1668360978
3542.82361	0.1680312157
3541.39390	0.1691866517
3539.96419	0.1702950001
3538.53448	0.1713718474
3537.10477	0.1724376678
3535.67506	0.1734987348
3534.24535	0.1745431423
3532.81564	0.1755604744
3531.38593	0.1765618771
3529.95621	0.1775780618
3528.52650	0.1786343604
3527.09679	0.1797275394
3525.66708	0.1808322966
3524.23737	0.1819248050
3522.80766	0.1829964072
3521.37795	0.1840452552
3519.94824	0.1850659251
3518.51853	0.1860526502
3517.08882	0.1870072931
3515.65911	0.1879400164
3514.22939	0.1888609231
3512.79968	0.1897771657
3511.36997	0.1906971484
3509.94026	0.1916301548
3508.51055	0.1925794780
3507.08084	0.1935384572
3505.65113	0.1944987327
3504.22142	0.1954578161
3502.79171	0.1964137703
3501.36200	0.1973543912
3499.93229	0.1982600987
3498.50257	0.1991258562
3497.07286	0.1999721229
3495.64315	0.2008283585
3494.21344	0.2017035484
3492.78373	0.2025756985
3491.35402	0.2034119815
3489.92431	0.2041940838
3488.49460	0.2049255520
3487.06489	0.2056222707
3485.63518	0.2063068151
3484.20547	0.2070083767
3482.77575	0.2077541649
3481.34604	0.2085506618
3479.91633	0.2093742639
3478.48662	0.2101877630
3477.05691	0.2109671533
3475.62720	0.2117121071
3474.19749	0.2124336511
3472.76778	0.2131387591
3471.33807	0.2138311565
3469.90836	0.2145187259
3468.47865	0.2152123600
3467.04893	0.2159157842
3465.61922	0.2166195363
3464.18951	0.2173065841
3462.75980	0.2179644108
3461.33009	0.2185864896
3459.90038	0.2191750705
3458.47067	0.2197401375
3457.04096	0.2202968895
3455.61125	0.2208555490
3454.18154	0.2214105278
3452.75183	0.2219459414
3451.32212	0.2224532068
3449.89240	0.2229431868
3448.46269	0.2234345526
3447.03298	0.2239347994
3445.60327	0.2244347930
3444.17356	0.2249264121
3442.74385	0.2254180610
3441.31414	0.2259263843
3439.88443	0.2264559865
3438.45472	0.2269912809
3437.02501	0.2275085747
3435.59530	0.2279916555
3434.16558	0.2284340113
3432.73587	0.2288347185
3431.30616	0.2291953117
3429.87645	0.2295240462
3428.44674	0.2298367321
3427.01703	0.2301502973
3425.58732	0.2304756641
3424.15761	0.2308170795
3422.72790	0.2311726213
3421.29819	0.2315337807
3419.86848	0.2318865806
3418.43876	0.2322193980
3417.00905	0.2325312793
3415.57934	0.2328325957
3414.14963	0.2331321388
3412.71992	0.2334279269
3411.29021	0.2337092012
3409.86050	0.2339703888
3408.43079	0.2342165411
3407.00108	0.2344580442
3405.57137	0.2347007990
3404.14166	0.2349418551
3402.71194	0.2351759374
3401.28223	0.2353992313
3399.85252	0.2356124818
3398.42281	0.2358189821
3396.99310	0.2360216677
3395.56339	0.2362162769
3394.13368	0.2363872826
3392.70397	0.2365119457
3391.27426	0.2365754545
3389.84455	0.2365859449
3388.41484	0.2365748286
3386.98512	0.2365824580
3385.55541	0.2366380841
3384.12570	0.2367500365
3382.69599	0.2369064391
3381.26628	0.2370845079
3379.83657	0.2372634560
3378.40686	0.2374350578
3376.97715	0.2376093268
3375.54744	0.2378058136
3374.11773	0.2380375415
3372.68802	0.2382951528
3371.25830	0.2385467291
3369.82859	0.2387541831
3368.39888	0.2388936728
3366.96917	0.2389664948
3365.53946	0.2389951795
3364.10975	0.2390088588
3362.68004	0.2390264124
3361.25033	0.2390500754
3359.82062	0.2390759289
3358.39091	0.2391100377
3356.96120	0.2391752303
3355.53148	0.2392951250
3354.10177	0.2394682467
3352.67206	0.2396601886
3351.24235	0.2398242354
3349.81264	0.2399382889
3348.38293	0.2400220484
3346.95322	0.2401228696
3345.52351	0.2402811646
3344.09380	0.2405021489
3342.66409	0.2407535613
3341.23438	0.2409821898
3339.80466	0.2411413640
3338.37495	0.2412124574
3336.94524	0.2412147969
3335.51553	0.2412003726
3334.08582	0.2412308156
3332.65611	0.2413527220
3331.22640	0.2415789515
3329.79669	0.2418867499
3328.36698	0.2422300279
3326.93727	0.2425586134
3325.50756	0.2428385317
3324.07784	0.2430638522
3322.64813	0.2432547510
3321.21842	0.2434430271
3319.78871	0.2436544150
3318.35900	0.2439045906
3316.92929	0.2442031354
3315.49958	0.2445616573
3314.06987	0.2449875474
3312.64016	0.2454712540
3311.21045	0.2459789515
3309.78074	0.2464579195
3308.35102	0.2468556911
3306.92131	0.2471407354
3305.49160	0.2473154962
3304.06189	0.2474181205
3302.63218	0.2475106120
3301.20247	0.2476506978
3299.77276	0.2478614450
3298.34305	0.2481159270
3296.91334	0.2483502477
3295.48363	0.2484977543
3294.05392	0.2485221922
3292.62421	0.2484285235
3291.19449	0.2482511997
3289.76478	0.2480305880
3288.33507	0.2477929294
3286.90536	0.2475428432
3285.47565	0.2472694814
3284.04594	0.2469599098
3282.61623	0.2466095686
3281.18652	0.2462237477
3279.75681	0.2458129227
3278.32710	0.2453836203
3276.89739	0.2449327260
3275.46767	0.2444446236
3274.03796	0.2438894659
3272.60825	0.2432292402
3271.17854	0.2424320579
3269.74883	0.2414900661
3268.31912	0.2404282838
3266.88941	0.2392979562
3265.45970	0.2381559163
3264.02999	0.2370471507
3262.60028	0.2359938473
3261.17057	0.2349966317
3259.74085	0.2340381444
3258.31114	0.2330898494
3256.88143	0.2321254760
3255.45172	0.2311362475
3254.02201	0.2301375866
3252.59230	0.2291576564
3251.16259	0.2282158881
3249.73288	0.2273098677
3248.30317	0.2264228463
3246.87346	0.2255423218
3245.44375	0.2246729136
3244.01403	0.2238344103
3242.58432	0.2230475247
3241.15461	0.2223226577
3239.72490	0.2216563523
3238.29519	0.2210317701
3236.86548	0.2204221785
3235.43577	0.2197966427
3234.00606	0.2191319317
3232.57635	0.2184225619
3231.14664	0.2176842093
3229.71693	0.2169467360
3228.28721	0.2162422836
3226.85750	0.2155944109
3225.42779	0.2150108367
3223.99808	0.2144806832
3222.56837	0.2139765471
3221.13866	0.2134657055
3219.70895	0.2129253894
3218.27924	0.2123525590
3216.84953	0.2117615938
3215.41982	0.2111705840
3213.99011	0.2105875462
3212.56039	0.2100093365
3211.13068	0.2094304860
3209.70097	0.2088512331
3208.27126	0.2082763016
3206.84155	0.2077063471
3205.41184	0.2071301788
3203.98213	0.2065295279
3202.55242	0.2058899999
3201.12271	0.2052145302
3199.69300	0.2045239061
3198.26329	0.2038474530
3196.83357	0.2032059878
3195.40386	0.2026004642
3193.97415	0.2020132244
3192.54444	0.2014203817
3191.11473	0.2008046806
3189.68502	0.2001626492
3188.25531	0.1995008141
3186.82560	0.1988261640
3185.39589	0.1981382221
3183.96618	0.1974290609
3182.53647	0.1966924667
3181.10675	0.1959338337
3179.67704	0.1951739192
3178.24733	0.1944361925
3176.81762	0.1937313378
3175.38791	0.1930486709
3173.95820	0.1923653781
3172.52849	0.1916665286
3171.09878	0.1909563988
3169.66907	0.1902519464
3168.23936	0.1895652711
3166.80965	0.1888896376
3165.37993	0.1882058978
3163.95022	0.1874999106
3162.52051	0.1867777258
3161.09080	0.1860642880
3159.66109	0.1853888333
3158.23138	0.1847651303
3156.80167	0.1841814816
3155.37196	0.1836038977
3153.94225	0.1829929352
3152.51254	0.1823227108
3151.08283	0.1815922409
3149.65311	0.1808247268
3148.22340	0.1800571233
3146.79369	0.1793246120
3145.36398	0.1786512434
3143.93427	0.1780413389
3142.50456	0.1774781048
3141.07485	0.1769276559
3139.64514	0.1763524562
3138.21543	0.1757299006
3136.78572	0.1750637740
3135.35601	0.1743811667
3133.92629	0.1737129688
3132.49658	0.1730758399
3131.06687	0.1724678576
3129.63716	0.1718803346
3128.20745	0.1713140458
3126.77774	0.1707826704
3125.34803	0.1703012884
3123.91832	0.1698713750
3122.48861	0.1694733948
3121.05890	0.1690748036
3119.62919	0.1686439663
3118.19948	0.1681648344
3116.76976	0.1676413268
3115.34005	0.1670948714
3113.91034	0.1665528566
3112.48063	0.1660341322
3111.05092	0.1655392200
3109.62121	0.1650552005
3108.19150	0.1645713449
3106.76179	0.1640947610
3105.33208	0.1636485755
3103.90237	0.1632531285
3102.47266	0.1629057676
3101.04294	0.1625784487
3099.61323	0.1622384638
3098.18352	0.1618732065
3096.75381	0.1614966094
3095.32410	0.1611325294
3093.89439	0.1607919633
3092.46468	0.1604652107
3091.03497	0.1601354927
3089.60526	0.1597976089
3088.17555	0.1594636887
3086.74584	0.1591510922
3085.31612	0.1588640064
3083.88641	0.1585846543
3082.45670	0.1582795382
3081.02699	0.1579157263
3079.59728	0.1574767679
3078.16757	0.1569703668
3076.73786	0.1564261764
3075.30815	0.1558858305
3073.87844	0.1553859711
3072.44873	0.1549427956
3071.01902	0.1545425206
3069.58930	0.1541461945
3068.15959	0.1537080854
3066.72988	0.1531992406
3065.30017	0.1526235193
3063.87046	0.1520129591
3062.44075	0.1514081806
3061.01104	0.1508356631
3059.58133	0.1502976418
3058.15162	0.1497795135
3056.72191	0.1492644697
3055.29220	0.1487449408
3053.86248	0.1482207924
3052.43277	0.1476921439
3051.00306	0.1471544802
3049.57335	0.1466023475
3048.14364	0.1460344195
3046.71393	0.1454553455
3045.28422	0.1448681802
3043.85451	0.1442711651
3042.42480	0.1436609477
3040.99509	0.1430425644
3039.56538	0.1424327046
3038.13566	0.1418490708
3036.70595	0.1412949264
3035.27624	0.1407517642
3033.84653	0.1401913762
3032.41682	0.1395949721
3030.98711	0.1389663666
3029.55740	0.1383273154
3028.12769	0.1377025694
3026.69798	0.1371087879
3025.26827	0.1365534663
3023.83856	0.1360401660
3022.40884	0.1355683506
3020.97913	0.1351309121
3019.54942	0.1347115487
3018.11971	0.1342884749
3016.69000	0.1338427365
3015.26029	0.1333654225
3013.83058	0.1328607649
3012.40087	0.1323411763
3010.97116	0.1318229437
3009.54145	0.1313226521
3008.11174	0.1308561265
3006.68202	0.1304375827
3005.25231	0.1300783306
3003.82260	0.1297821254
3002.39289	0.1295444369
3000.96318	0.1293536723
2999.53347	0.1291988194
2998.10376	0.1290740222
2996.67405	0.1289781481
2995.24434	0.1289095134
2993.81463	0.1288626343
2992.38492	0.1288308799
2990.95520	0.1288169771
2989.52549	0.1288385689
2988.09578	0.1289241463
2986.66607	0.1290980279
2985.23636	0.1293670237
2983.80665	0.1297152638
2982.37694	0.1301132292
2980.94723	0.1305320114
2979.51752	0.1309521794
2978.08781	0.1313651502
2976.65810	0.1317696720
2975.22838	0.1321683377
2973.79867	0.1325684488
2972.36896	0.1329812109
2970.93925	0.1334172338
2969.50954	0.1338792294
2968.07983	0.1343530566
2966.65012	0.1348055303
2965.22041	0.1351912618
2963.79070	0.1354650557
2962.36099	0.1355979592
2960.93128	0.1355850846
2959.50157	0.1354422122
2958.07185	0.1351914406
2956.64214	0.1348468810
2955.21243	0.1344114989
2953.78272	0.1338877231
2952.35301	0.1332958639
2950.92330	0.1326809078
2949.49359	0.1321043968
2948.06388	0.1316221654
2946.63417	0.1312665790
2945.20446	0.1310430318
2943.77475	0.1309395730
2942.34503	0.1309418827
2940.91532	0.1310405880
2939.48561	0.1312288046
2938.05590	0.1314942092
2936.62619	0.1318132281
2935.19648	0.1321499795
2933.76677	0.1324640363
2932.33706	0.1327196211
2930.90735	0.1328930706
2929.47764	0.1329750866
2928.04793	0.1329686493
2926.61821	0.1328838617
2925.18850	0.1327323467
2923.75879	0.1325181127
2922.32908	0.1322275102
2920.89937	0.1318234354
2919.46966	0.1312521547
2918.03995	0.1304635555
2916.61024	0.1294365227
2915.18053	0.1281956732
2913.75082	0.1268087924
2912.32111	0.1253689378
2910.89139	0.1239677221
2909.46168	0.1226738691
2908.03197	0.1215214953
2906.60226	0.1205136329
2905.17255	0.1196343005
2903.74284	0.1188639775
2902.31313	0.1181866974
2900.88342	0.1175883785
2899.45371	0.1170494780
2898.02400	0.1165422201
2896.59429	0.1160383672
2895.16457	0.1155225635
2893.73486	0.1150012314
2892.30515	0.1144998297
2890.87544	0.1140505075
2889.44573	0.1136767715
2888.01602	0.1133862287
2886.58631	0.1131712869
2885.15660	0.1130190045
2883.72689	0.1129201576
2882.29718	0.1128736958
2880.86747	0.1128828973
2879.43775	0.1129424199
2878.00804	0.1130255237
2876.57833	0.1130800620
2875.14862	0.1130412742
2873.71891	0.1128560379
2872.28920	0.1125047281
2870.85949	0.1120101884
2869.42978	0.1114276350
2868.00007	0.1108259857
2866.57036	0.1102679521
2865.14065	0.1097960100
2863.71093	0.1094267145
2862.28122	0.1091530174
2860.85151	0.1089539006
2859.42180	0.1088068113
2857.99209	0.1086959541
2856.56238	0.1086066291
2855.13267	0.1085095406
2853.70296	0.1083458290
2852.27325	0.1080294847
2850.84354	0.1074751914
2849.41383	0.1066388860
2847.98411	0.1055477411
2846.55440	0.1042987481
2845.12469	0.1030251533
2843.69498	0.1018469781
2842.26527	0.1008326635
2840.83556	0.0999896154
2839.40585	0.0992825851
2837.97614	0.0986644402
2836.54643	0.0980988890
2835.11672	0.0975668430
2833.68701	0.0970614329
2832.25729	0.0965829343
2830.82758	0.0961366072
2829.39787	0.0957314000
2827.96816	0.0953746736
2826.53845	0.0950646400
2825.10874	0.0947886929
2823.67903	0.0945278257
2822.24932	0.0942675993
2820.81961	0.0940040201
2819.38990	0.0937437192
2817.96019	0.0934958979
2816.53047	0.0932664797
2815.10076	0.0930539891
2813.67105	0.0928503200
2812.24134	0.0926430896
2810.81163	0.0924192145
2809.38192	0.0921694636
2807.95221	0.0918924063
2806.52250	0.0915971845
2805.09279	0.0913027674
2803.66308	0.0910311192
2802.23337	0.0907965824
2800.80366	0.0905984640
2799.37394	0.0904219225
2797.94423	0.0902484134
2796.51452	0.0900671408
2795.08481	0.0898763910
2793.65510	0.0896769762
2792.22539	0.0894637480
2790.79568	0.0892272294
2789.36597	0.0889632329
2787.93626	0.0886808187
2786.50655	0.0884000137
2785.07684	0.0881402940
2783.64712	0.0879126340
2782.21741	0.0877184570
2780.78770	0.0875539109
2779.35799	0.0874110237
2777.92828	0.0872746930
2776.49857	0.0871245191
2775.06886	0.0869422406
2773.63915	0.0867221355
2772.20944	0.0864745602
2770.77973	0.0862179399
2769.35002	0.0859689862
2767.92030	0.0857346430
2766.49059	0.0855147392
2765.06088	0.0853052214
2763.63117	0.0851013064
2762.20146	0.0848985016
2760.77175	0.0846928284
2759.34204	0.0844843313
2757.91233	0.0842797980
2756.48262	0.0840911940
2755.05291	0.0839298740
2753.62320	0.0837970227
2752.19348	0.0836777687
2750.76377	0.0835446119
2749.33406	0.0833701640
2747.90435	0.0831439942
2746.47464	0.0828798413
2745.04493	0.0826089904
2743.61522	0.0823625028
2742.18551	0.0821551830
2740.75580	0.0819804743
2739.32609	0.0818179622
2737.89638	0.0816467330
2736.46666	0.0814559609
2735.03695	0.0812477618
2733.60724	0.0810346752
2732.17753	0.0808318555
2730.74782	0.0806492344
2729.31811	0.0804854408
2727.88840	0.0803281590
2726.45869	0.0801597014
2725.02898	0.0799665004
2723.59927	0.0797460377
2722.16956	0.0795079172
2720.73984	0.0792687088
2719.31013	0.0790443197
2717.88042	0.0788437650
2716.45071	0.0786658525
2715.02100	0.0785018429
2713.59129	0.0783396363
2712.16158	0.0781695247
2710.73187	0.0779882073
2709.30216	0.0777982026
2707.87245	0.0776064172
2706.44274	0.0774174705
2705.01302	0.0772320777
2703.58331	0.0770475864
2702.15360	0.0768625066
2700.72389	0.0766803697
2699.29418	0.0765071735
2697.86447	0.0763466656
2696.43476	0.0761970133
2695.00505	0.0760526881
2693.57534	0.0759096742
2692.14563	0.0757688656
2690.71592	0.0756338015
2689.28620	0.0755070373
2687.85649	0.0753887147
2686.42678	0.0752778426
2684.99707	0.0751736164
2683.56736	0.0750741810
2682.13765	0.0749731436
2680.70794	0.0748603493
2679.27823	0.0747245550
2677.84852	0.0745597258
2676.41881	0.0743679255
2674.98910	0.0741601735
2673.55938	0.0739528984
2672.12967	0.0737617612
2670.69996	0.0735938922
2669.27025	0.0734455287
2667.84054	0.0733045936
2666.41083	0.0731602460
2664.98112	0.0730105862
2663.55141	0.0728634000
2662.12170	0.0727285668
2660.69199	0.0726096779
2659.26228	0.0725004002
2657.83256	0.0723899007
2656.40285	0.0722704977
2654.97314	0.0721431747
2653.54343	0.0720167235
2652.11372	0.0719000474
2650.68401	0.0717956200
2649.25430	0.0716976300
2647.82459	0.0715960041
2646.39488	0.0714847818
2644.96517	0.0713660568
2643.53546	0.0712478161
2642.10575	0.0711372048
2640.67603	0.0710354894
2639.24632	0.0709391683
2637.81661	0.0708441734
2636.38690	0.0707498416
2634.95719	0.0706580877
2633.52748	0.0705711618
2632.09777	0.0704888850
2630.66806	0.0704089403
2629.23835	0.0703283399
2627.80864	0.0702448562
2626.37893	0.0701580793
2624.94921	0.0700694025
2623.51950	0.0699800402
2622.08979	0.0698890612
2620.66008	0.0697933510
2619.23037	0.0696892440
2617.80066	0.0695764497
2616.37095	0.0694603994
2614.94124	0.0693510026
2613.51153	0.0692580491
2612.08182	0.0691853091
2610.65211	0.0691277608
2609.22239	0.0690735579
2607.79268	0.0690096170
2606.36297	0.0689280853
2604.93326	0.0688309222
2603.50355	0.0687279031
2602.07384	0.0686314180
2600.64413	0.0685486943
2599.21442	0.0684811324
2597.78471	0.0684265196
2596.35500	0.0683834925
2594.92529	0.0683521032
2593.49557	0.0683305934
2592.06586	0.0683121383
2590.63615	0.0682863593
2589.20644	0.0682438314
2587.77673	0.0681817979
2586.34702	0.0681059659
2584.91731	0.0680282116
2583.48760	0.0679618865
2582.05789	0.0679160282
2580.62818	0.0678912103
2579.19847	0.0678790733
2577.76875	0.0678659678
2576.33904	0.0678400919
2574.90933	0.0677984804
2573.47962	0.0677486509
2572.04991	0.0677038133
2570.62020	0.0676762536
2569.19049	0.0676698685
2567.76078	0.0676790029
2566.33107	0.0676924959
2564.90136	0.0677001178
2563.47165	0.0676985458
2562.04193	0.0676917732
2560.61222	0.0676868707
2559.18251	0.0676866919
2557.75280	0.0676883236
2556.32309	0.0676856562
2554.89338	0.0676761270
2553.46367	0.0676628500
2552.03396	0.0676519275
2550.60425	0.0676473603
2549.17454	0.0676492080
2547.74483	0.0676557124
2546.31511	0.0676669031
2544.88540	0.0676837862
2543.45569	0.0677056238
2542.02598	0.0677268952
2540.59627	0.0677409619
2539.16656	0.0677444115
2537.73685	0.0677404776
2536.30714	0.0677374527
2534.87743	0.0677448958
2533.44772	0.0677692518
2532.01801	0.0678121001
2530.58829	0.0678696930
2529.15858	0.0679336414
2527.72887	0.0679929480
2526.29916	0.0680385679
2524.86945	0.0680677593
2523.43974	0.0680854097
2522.01003	0.0681010336
2520.58032	0.0681211725
2519.15061	0.0681456104
2517.72090	0.0681667775
2516.29119	0.0681777745
2514.86147	0.0681784675
2513.43176	0.0681777075
2512.00205	0.0681897029
2510.57234	0.0682254434
2509.14263	0.0682872087
2507.71292	0.0683685839
2506.28321	0.0684568882
2504.85350	0.0685380548
2503.42379	0.0685994998
2501.99408	0.0686336011
2500.56437	0.0686411187
2499.13465	0.0686321780
2497.70494	0.0686245412
2496.27523	0.0686347261
2494.84552	0.0686709285
2493.41581	0.0687292367
2491.98610	0.0687963814
2490.55639	0.0688578635
2489.12668	0.0689048469
2487.69697	0.0689369142
2486.26726	0.0689595789
2484.83755	0.0689801499
2483.40784	0.0690045208
2481.97812	0.0690367743
2480.54841	0.0690775886
2479.11870	0.0691243634
2477.68899	0.0691708624
2476.25928	0.0692094490
2474.82957	0.0692359805
2473.39986	0.0692526773
2471.97015	0.0692682862
2470.54044	0.0692904815
2469.11073	0.0693210885
2467.68102	0.0693536997
2466.25130	0.0693796352
2464.82159	0.0693963990
2463.39188	0.0694096759
2461.96217	0.0694304481
2460.53246	0.0694662631
2459.10275	0.0695156232
2457.67304	0.0695688799
2456.24333	0.0696145818
2454.81362	0.0696463063
2453.38391	0.0696652979
2451.95420	0.0696781874
2450.52448	0.0696925595
2449.09477	0.0697124377
2447.66506	0.0697376654
2446.23535	0.0697659329
2444.80564	0.0697952062
2443.37593	0.0698232353
2441.94622	0.0698464587
2440.51651	0.0698598698
2439.08680	0.0698602647
2437.65709	0.0698499605
2436.22738	0.0698380694
2434.79766	0.0698350295
2433.36795	0.0698465556
2431.93824	0.0698695034
2430.50853	0.0698958412
2429.07882	0.0699178204
2427.64911	0.0699318722
2426.21940	0.0699379817
2424.78969	0.0699368864
2423.35998	0.0699290410
2421.93027	0.0699160248
2420.50056	0.0699014962
2419.07084	0.0698893592
2417.64113	0.0698804259
2416.21142	0.0698704496
2414.78171	0.0698517188
2413.35200	0.0698196143
2411.92229	0.0697757229
2410.49258	0.0697296709
2409.06287	0.0696938634
2407.63316	0.0696776360
2406.20345	0.0696822852
2404.77374	0.0697006434
2403.34402	0.0697206110
2401.91431	0.0697317645
2400.48460	0.0697297007
2399.05489	0.0697175711
2397.62518	0.0697025880
2396.19547	0.0696911588
2394.76576	0.0696845949
2393.33605	0.0696792826
2391.90634	0.0696693733
2390.47663	0.0696507767
2389.04692	0.0696219653
2387.61720	0.0695818588
2386.18749	0.0695266798
2384.75778	0.0694517717
2383.32807	0.0693540052
2381.89836	0.0692340061
2380.46865	0.0690935850
2379.03894	0.0689301193
2377.60923	0.0687350556
2376.17952	0.0685004666
2374.74981	0.0682310164
2373.32010	0.0679477826
2371.89038	0.0676767379
2370.46067	0.0674272627
2369.03096	0.0671825334
2367.60125	0.0669161305
2366.17154	0.0666248202
2364.74183	0.0663466975
2363.31212	0.0661459491
2361.88241	0.0660742968
2360.45270	0.0661413968
2359.02299	0.0663160235
2357.59328	0.0665491968
2356.16356	0.0667949915
2354.73385	0.0670180619
2353.30414	0.0671916902
2351.87443	0.0672985464
2350.44472	0.0673292279
2349.01501	0.0672823787
2347.58530	0.0671643093
2346.15559	0.0669929311
2344.72588	0.0668006688
2343.29617	0.0666270852
2341.86646	0.0664997771
2340.43674	0.0664173961
2339.00703	0.0663596690
2337.57732	0.0663098171
2336.14761	0.0662659109
2334.71790	0.0662365705
2333.28819	0.0662315637
2331.85848	0.0662549064
2330.42877	0.0663014650
2328.99906	0.0663604215
2327.56935	0.0664214939
2326.13964	0.0664811358
2324.70993	0.0665422902
2323.28021	0.0666072518
2321.85050	0.0666733161
2320.42079	0.0667342842
2318.99108	0.0667872950
2317.56137	0.0668372661
2316.13166	0.0668932125
2314.70195	0.0669597387
2313.27224	0.0670315325
2311.84253	0.0670963302
2310.41282	0.0671419501
2308.98311	0.0671651289
2307.55339	0.0671714768
2306.12368	0.0671705976
2304.69397	0.0671702325
2303.26426	0.0671737716
2301.83455	0.0671825036
2300.40484	0.0671957061
2298.97513	0.0672109053
2297.54542	0.0672219396
2296.11571	0.0672192499
2294.68600	0.0671932325
2293.25629	0.0671387240
2291.82657	0.0670586899
2290.39686	0.0669651181
2288.96715	0.0668750331
2287.53744	0.0668041706
2286.10773	0.0667600036
2284.67802	0.0667379722
2283.24831	0.0667236894
2281.81860	0.0667005703
2280.38889	0.0666579232
2278.95918	0.0665953979
2277.52947	0.0665222555
2276.09975	0.0664525032
2274.67004	0.0663979724
2273.24033	0.0663630441
2271.81062	0.0663419962
2270.38091	0.0663221180
2268.95120	0.0662910268
2267.52149	0.0662437156
2266.09178	0.0661851093
2264.66207	0.0661251768
2263.23236	0.0660720393
2261.80265	0.0660284907
2260.37293	0.0659924150
2258.94322	0.0659607202
2257.51351	0.0659312829
2256.08380	0.0659032315
2254.65409	0.0658758432
2253.22438	0.0658478886
2251.79467	0.0658183396
2250.36496	0.0657862574
2248.93525	0.0657518357
2247.50554	0.0657169893
2246.07583	0.0656844079
2244.64611	0.0656559840
2243.21640	0.0656302050
2241.78669	0.0656029880
2240.35698	0.0655686408
2238.92727	0.0655242056
2237.49756	0.0654710233
2236.06785	0.0654138699
2234.63814	0.0653593391
2233.20843	0.0653120130
2231.77872	0.0652736872
2230.34901	0.0652433932
2228.91929	0.0652186051
2227.48958	0.0651973337
2226.05987	0.0651772469
2224.63016	0.0651553199
2223.20045	0.0651275888
2221.77074	0.0650912300
2220.34103	0.0650473908
2218.91132	0.0650005192
2217.48161	0.0649568364
2216.05190	0.0649190471
2214.62219	0.0648861900
2213.19247	0.0648542121
2211.76276	0.0648182705
2210.33305	0.0647738203
2208.90334	0.0647190437
2207.47363	0.0646555349
2206.04392	0.0645889342
2204.61421	0.0645276979
2203.18450	0.0644778758
2201.75479	0.0644402504
2200.32508	0.0644092038
2198.89537	0.0643759966
2197.46565	0.0643331856
2196.03594	0.0642783195
2194.60623	0.0642160997
2193.17652	0.0641546696
2191.74681	0.0641010851
2190.31710	0.0640571639
2188.88739	0.0640186742
2187.45768	0.0639788657
2186.02797	0.0639333725
2184.59826	0.0638810694
2183.16855	0.0638233721
2181.73883	0.0637619421
2180.30912	0.0636986867
2178.87941	0.0636349097
2177.44970	0.0635706857
2176.01999	0.0635050014
2174.59028	0.0634372905
2173.16057	0.0633710623
2171.73086	0.0633130521
2170.30115	0.0632684603
2168.87144	0.0632343218
2167.44173	0.0631993786
2166.01202	0.0631507859
2164.58230	0.0630838796
2163.15259	0.0630067810
2161.72288	0.0629348084
2160.29317	0.0628800541
2158.86346	0.0628426597
2157.43375	0.0628116056
2156.00404	0.0627729893
2154.57433	0.0627196655
2153.14462	0.0626558438
2151.71491	0.0625935867
2150.28520	0.0625444353
2148.85548	0.0625111684
2147.42577	0.0624871328
2145.99606	0.0624600798
2144.56635	0.0624198206
2143.13664	0.0623621717
2141.70693	0.0622907579
2140.27722	0.0622134693
2138.84751	0.0621384345
2137.41780	0.0620703995
2135.98809	0.0620097518
2134.55838	0.0619555339
2133.12866	0.0619076490
2131.69895	0.0618675873
2130.26924	0.0618356206
2128.83953	0.0618083999
2127.40982	0.0617790632
2125.98011	0.0617406294
2124.55040	0.0616900809
2123.12069	0.0616293661
2121.69098	0.0615633242
2120.26127	0.0614970215
2118.83156	0.0614336208
2117.40184	0.0613745227
2115.97213	0.0613204688
2114.54242	0.0612721778
2113.11271	0.0612305366
2111.68300	0.0611952208
2110.25329	0.0611627661
2108.82358	0.0611269176
2107.39387	0.0610814169
2105.96416	0.0610243343
2104.53445	0.0609600469
2103.10474	0.0608968139
2101.67502	0.0608422272
2100.24531	0.0607992001
2098.81560	0.0607654937
2097.38589	0.0607355423
2095.95618	0.0607025884
2094.52647	0.0606612116
2093.09676	0.0606079921
2091.66705	0.0605434999
2090.23734	0.0604723543
2088.80763	0.0604010709
2087.37792	0.0603350624
2085.94820	0.0602748059
2084.51849	0.0602165498
2083.08878	0.0601545274
2081.65907	0.0600856431
2080.22936	0.0600131750
2078.79965	0.0599455908
2077.36994	0.0598913319
2075.94023	0.0598528534
2074.51052	0.0598229356
2073.08081	0.0597887412
2071.65110	0.0597391650
2070.22138	0.0596726350
2068.79167	0.0595971495
2067.36196	0.0595256202
2065.93225	0.0594676733
2064.50254	0.0594253764
2063.07283	0.0593931116
2061.64312	0.0593615621
2060.21341	0.0593219176
2058.78370	0.0592691004
2057.35399	0.0592033528
2055.92428	0.0591310300
2054.49456	0.0590626672
2053.06485	0.0590089597
2051.63514	0.0589748919
2050.20543	0.0589566268
2048.77572	0.0589430779
2047.34601	0.0589222349
2045.91630	0.0588877574
2044.48659	0.0588409193
2043.05688	0.0587878041
2041.62717	0.0587339252
2040.19746	0.0586810298
2038.76774	0.0586273111
2037.33803	0.0585711151
2035.90832	0.0585124344
2034.47861	0.0584529899
2033.04890	0.0583934672
2031.61919	0.0583325326
2030.18948	0.0582692660
2028.75977	0.0582056567
2027.33006	0.0581467301
2025.90035	0.0580968335
2024.47064	0.0580540784
2023.04092	0.0580099635
2021.61121	0.0579547025
2020.18150	0.0578842759
2018.75179	0.0578056984
2017.32208	0.0577341989
2015.89237	0.0576843843
2014.46266	0.0576612055
2013.03295	0.0576565340
2011.60324	0.0576543473
2010.17353	0.0576404855
2008.74382	0.0576095358
2007.31411	0.0575658791
2005.88439	0.0575171784
2004.45468	0.0574687161
2003.02497	0.0574206114
2001.59526	0.0573716015
2000.16555	0.0573226511
1998.73584	0.0572789684
1997.30613	0.0572455935
1995.87642	0.0572250076
1994.44671	0.0572143197
1993.01700	0.0572077334
1991.58729	0.0571992584
1990.15757	0.0571856461
1988.72786	0.0571679287
1987.29815	0.0571494140
1985.86844	0.0571331754
1984.43873	0.0571207441
1983.00902	0.0571126863
1981.57931	0.0571102947
1980.14960	0.0571158156
1978.71989	0.0571296923
1977.29018	0.0571483225
1975.86047	0.0571641773
1974.43075	0.0571681336
1973.00104	0.0571531653
1971.57133	0.0571174957
1970.14162	0.0570676923
1968.71191	0.0570189580
1967.28220	0.0569899715
1965.85249	0.0569921844
1964.42278	0.0570208170
1962.99307	0.0570575669
1961.56336	0.0570827201
1960.13365	0.0570873842
1958.70393	0.0570777878
1957.27422	0.0570694655
1955.84451	0.0570771396
1954.41480	0.0571068972
1952.98509	0.0571528114
1951.55538	0.0571994372
1950.12567	0.0572291426
1948.69596	0.0572310351
1947.26625	0.0572067574
1945.83654	0.0571699664
1944.40683	0.0571389608
1942.97711	0.0571278036
1941.54740	0.0571405552
1940.11769	0.0571714714
1938.68798	0.0572098307
1937.25827	0.0572456233
1935.82856	0.0572737679
1934.39885	0.0572956838
1932.96914	0.0573164783
1931.53943	0.0573406406
1930.10972	0.0573679358
1928.68001	0.0573948808
1927.25029	0.0574179851
1925.82058	0.0574354753
1924.39087	0.0574454889
1922.96116	0.0574467331
1921.53145	0.0574409999
1920.10174	0.0574362129
1918.67203	0.0574427135
1917.24232	0.0574650802
1915.81261	0.0575003028
1914.38290	0.0575419702
1912.95319	0.0575889051
1911.52347	0.0576458946
1910.09376	0.0577166677
1908.66405	0.0577970631
1907.23434	0.0578741021
1905.80463	0.0579332560
1904.37492	0.0579668023
1902.94521	0.0579782203
1901.51550	0.0579794906
1900.08579	0.0579844043
1898.65608	0.0580004677
1897.22637	0.0580267683
1895.79665	0.0580578931
1894.36694	0.0580905899
1892.93723	0.0581261292
1891.50752	0.0581663810
1890.07781	0.0582101829
1888.64810	0.0582547896
1887.21839	0.0583007075
1885.78868	0.0583518967
1884.35897	0.0584108792
1882.92926	0.0584750250
1881.49955	0.0585397445
1880.06983	0.0586035214
1878.64012	0.0586678162
1877.21041	0.0587312579
1875.78070	0.0587858483
1874.35099	0.0588211790
1872.92128	0.0588325597
1871.49157	0.0588274337
1870.06186	0.0588240251
1868.63215	0.0588441193
1867.20244	0.0589008592
1865.77273	0.0589901619
1864.34301	0.0590944290
1862.91330	0.0591941550
1861.48359	0.0592802539
1860.05388	0.0593566373
1858.62417	0.0594349615
1857.19446	0.0595232472
1855.76475	0.0596189722
1854.33504	0.0597116910
1852.90533	0.0597910285
1851.47562	0.0598510131
1850.04591	0.0598895773
1848.61619	0.0599102005
1847.18648	0.0599259809
1845.75677	0.0599602424
1844.32706	0.0600342192
1842.89735	0.0601501241
1841.46764	0.0602892302
1840.03793	0.0604276061
1838.60822	0.0605487972
1837.17851	0.0606440045
1835.74880	0.0607083328
1834.31909	0.0607436709
1832.88938	0.0607629642
1831.45966	0.0607890747
1830.02995	0.0608435683
1828.60024	0.0609354153
1827.17053	0.0610593706
1825.74082	0.0612046979
1824.31111	0.0613630414
1822.88140	0.0615283363
1821.45169	0.0616943799
1820.02198	0.0618543662
1818.59227	0.0620008558
1817.16256	0.0621252321
1815.73284	0.0622209981
1814.30313	0.0622916222
1812.87342	0.0623560771
1811.44371	0.0624407418
1810.01400	0.0625616908
1808.58429	0.0627122745
1807.15458	0.0628690794
1805.72487	0.0630087852
1804.29516	0.0631199256
1802.86545	0.0632044971
1801.43574	0.0632756427
1800.00602	0.0633534491
1798.57631	0.0634537116
1797.14660	0.0635788962
1795.71689	0.0637202710
1794.28718	0.0638729110
1792.85747	0.0640466884
1791.42776	0.0642568246
1789.99805	0.0645009652
1788.56834	0.0647530556
1787.13863	0.0649839193
1785.70892	0.0651807636
1784.27920	0.0653499216
1782.84949	0.0655057877
1781.41978	0.0656605288
1779.99007	0.0658196360
1778.56036	0.0659820810
1777.13065	0.0661415458
1775.70094	0.0662899390
1774.27123	0.0664301515
1772.84152	0.0665881559
1771.41181	0.0668027550
1769.98210	0.0670897737
1768.55238	0.0674250573
1767.12267	0.0677746683
1765.69296	0.0681253150
1764.26325	0.0684840083
1762.83354	0.0688574091
1761.40383	0.0692412034
1759.97412	0.0696288943
1758.54441	0.0700255707
1757.11470	0.0704459250
1755.68499	0.0709003061
1754.25528	0.0713927522
1752.82556	0.0719324946
1751.39585	0.0725367740
1749.96614	0.0732105821
1748.53643	0.0739256740
1747.10672	0.0746373013
1745.67701	0.0753238052
1744.24730	0.0759946778
1742.81759	0.0766613111
1741.38788	0.0773115233
1739.95817	0.0779181123
1738.52846	0.0784710497
1737.09874	0.0789980218
1735.66903	0.0795563534
1734.23932	0.0802037567
1732.80961	0.0809639916
1731.37990	0.0818156227
1729.95019	0.0827177465
1728.52048	0.0836426467
1727.09077	0.0845795572
1725.66106	0.0855263993
1724.23135	0.0864834711
1722.80164	0.0874586329
1721.37192	0.0884869620
1719.94221	0.0896492302
1718.51250	0.0910509750
1717.08279	0.0927208588
1715.65308	0.0945154056
1714.22337	0.0962231159
1712.79366	0.0977613851
1711.36395	0.0991965979
1709.93424	0.1006402299
1708.50453	0.1021732241
1707.07482	0.1038338766
1705.64510	0.1056523845
1704.21539	0.1077021211
1702.78568	0.1101288274
1701.35597	0.1131162345
1699.92626	0.1167575866
1698.49655	0.1208816022
1697.06684	0.1250499189
1695.63713	0.1288448721
1694.20742	0.1321144998
1692.77771	0.1349308938
1691.34800	0.1374472678
1689.91828	0.1398356110
1688.48857	0.1423059851
1687.05886	0.1451278925
1685.62915	0.1485322267
1684.19944	0.1524346173
1682.76973	0.1563262939
1681.34002	0.1597185582
1679.91031	0.1625651568
1678.48060	0.1651333869
1677.05089	0.1677080840
1675.62118	0.1704454869
1674.19147	0.1733719707
1672.76175	0.1764623374
1671.33204	0.1796969175
1669.90233	0.1830233485
1668.47262	0.1863215119
1667.04291	0.1894828081
1665.61320	0.1925121397
1664.18349	0.1954894066
1662.75378	0.1984138936
1661.32407	0.2011126578
1659.89436	0.2033403814
1658.46465	0.2049466819
1657.03493	0.2059043050
1655.60522	0.2062080503
1654.17551	0.2058116943
1652.74580	0.2047274262
1651.31609	0.2031432539
1649.88638	0.2012828887
1648.45667	0.1992209405
1647.02696	0.1969682276
1645.59725	0.1946413517
1644.16754	0.1924419701
1642.73783	0.1904834807
1641.30811	0.1886986345
1639.87840	0.1868972480
1638.44869	0.1848717034
1637.01898	0.1825210452
1635.58927	0.1799594313
1634.15956	0.1774294078
1632.72985	0.1750385910
1631.30014	0.1726679504
1629.87043	0.1700922847
1628.44072	0.1670926213
1627.01101	0.1635234356
1625.58129	0.1593898535
1624.15158	0.1548861414
1622.72187	0.1502853185
1621.29216	0.1457412988
1619.86245	0.1412140578
1618.43274	0.1365958303
1617.00303	0.1319269538
1615.57332	0.1274762005
1614.14361	0.1235436201
1612.71390	0.1202073172
1611.28419	0.1173176914
1609.85447	0.1146828309
1608.42476	0.1122172475
1606.99505	0.1099565029
1605.56534	0.1079706326
1604.13563	0.1062802002
1602.70592	0.1048524976
1601.27621	0.1036483273
1599.84650	0.1026441604
1598.41679	0.1018183753
1596.98708	0.1011407673
1595.55737	0.1005902961
1594.12765	0.1001727954
1592.69794	0.0999089330
1591.26823	0.0998063833
1589.83852	0.0998506546
1588.40881	0.1000246182
1586.97910	0.1003208309
1585.54939	0.1007302478
1584.11968	0.1012261212
1582.68997	0.1017757356
1581.26026	0.1023745388
1579.83055	0.1030668691
1578.40083	0.1039230525
1576.97112	0.1049751416
1575.54141	0.1061656848
1574.11170	0.1073913500
1572.68199	0.1086076871
1571.25228	0.1098604798
1569.82257	0.1112125590
1568.39286	0.1126496494
1566.96315	0.1140694544
1565.53344	0.1153740808
1564.10373	0.1165724248
1562.67401	0.1178149879
1561.24430	0.1193795428
1559.81459	0.1215501949
1558.38488	0.1242710128
1556.95517	0.1269734800
1555.52546	0.1291302741
1554.09575	0.1306889057
1552.66604	0.1318226606
1551.23633	0.1326472163
1549.80662	0.1331732571
1548.37691	0.1333665848
1546.94719	0.1332044899
1545.51748	0.1326742619
1544.08777	0.1317341179
1542.65806	0.1303234696
1541.22835	0.1285091341
1539.79864	0.1265973598
1538.36893	0.1248901784
1536.93922	0.1234042346
1535.50951	0.1219702214
1534.07980	0.1204458848
1532.65009	0.1188033000
1531.22037	0.1171012372
1529.79066	0.1154026762
1528.36095	0.1137186065
1526.93124	0.1120185927
1525.50153	0.1102794260
1524.07182	0.1085205078
1522.64211	0.1068003252
1521.21240	0.1051791683
1519.78269	0.1036749110
1518.35298	0.1022473499
1516.92327	0.1008239165
1515.49356	0.0993418023
1514.06384	0.0977633670
1512.63413	0.0960454047
1511.20442	0.0940840617
1509.77471	0.0917043686
1508.34500	0.0888141915
1506.91529	0.0857182443
1505.48558	0.0830601752
1504.05587	0.0811783597
1502.62616	0.0798802450
1501.19645	0.0788109899
1499.76674	0.0777274221
1498.33702	0.0765605196
1496.90731	0.0753841847
1495.47760	0.0743135214
1494.04789	0.0733911470
1492.61818	0.0725781322
1491.18847	0.0718264356
1489.75876	0.0711415932
1488.32905	0.0705850795
1486.89934	0.0702148229
1485.46963	0.0700311065
1484.03992	0.0699888021
1482.61020	0.0700436682
1481.18049	0.0701792836
1479.75078	0.0704076588
1478.32107	0.0707606599
1476.89136	0.0712819770
1475.46165	0.0720125362
1474.03194	0.0729441345
1472.60223	0.0739667118
1471.17252	0.0749030113
1469.74281	0.0756296143
1468.31310	0.0761317387
1466.88338	0.0764611438
1465.45367	0.0766849741
1464.02396	0.0768561363
1462.59425	0.0770047531
1461.16454	0.0771440715
1459.73483	0.0772840306
1458.30512	0.0774313360
1456.87541	0.0775712878
1455.44570	0.0776588842
1454.01599	0.0776499063
1452.58628	0.0775266364
1451.15656	0.0772898123
1449.72685	0.0769482851
1448.29714	0.0765256658
1446.86743	0.0760650560
1445.43772	0.0756123289
1444.00801	0.0751876161
1442.57830	0.0747743323
1441.14859	0.0743342564
1439.71888	0.0738323554
1438.28917	0.0732619092
1436.85946	0.0726628900
1435.42974	0.0721109658
1434.00003	0.0716754049
1432.57032	0.0713878050
1431.14061	0.0712503493
1429.71090	0.0712549239
1428.28119	0.0713893324
1426.85148	0.0716340989
1425.42177	0.0719652697
1423.99206	0.0723654032
1422.56235	0.0728300959
1421.13264	0.0733631924
1419.70292	0.0739592239
1418.27321	0.0745868906
1416.84350	0.0751994699
1415.41379	0.0757661834
1413.98408	0.0762869194
1412.55437	0.0767791793
1411.12466	0.0772567540
1409.69495	0.0777176693
1408.26524	0.0781476796
1406.83553	0.0785301924
1405.40582	0.0788507760
1403.97610	0.0790937319
1402.54639	0.0792389140
1401.11668	0.0792674944
1399.68697	0.0791726187
1398.25726	0.0789637417
1396.82755	0.0786651969
1395.39784	0.0783073381
1393.96813	0.0779142380
1392.53842	0.0774933994
1391.10871	0.0770341754
1389.67900	0.0765161514
1388.24928	0.0759235770
1386.81957	0.0752614364
1385.38986	0.0745586753
1383.96015	0.0738524869
1382.53044	0.0731666833
1381.10073	0.0725064874
1379.67102	0.0718691647
1378.24131	0.0712572709
1376.81160	0.0706875101
1375.38189	0.0701888055
1373.95218	0.0697912574
1372.52246	0.0695070848
1371.09275	0.0693202689
1369.66304	0.0691918060
1368.23333	0.0690784082
1366.80362	0.0689501464
1365.37391	0.0687988997
1363.94420	0.0686377585
1362.51449	0.0684927404
1361.08478	0.0683894604
1359.65507	0.0683416501
1358.22536	0.0683471337
1356.79565	0.0683912784
1355.36593	0.0684545189
1353.93622	0.0685202926
1352.50651	0.0685809106
1351.07680	0.0686368197
1349.64709	0.0686883330
1348.21738	0.0687285066
1346.78767	0.0687447637
1345.35796	0.0687291175
1343.92825	0.0686870888
1342.49854	0.0686395764
1341.06883	0.0686161071
1339.63911	0.0686423928
1338.20940	0.0687267482
1336.77969	0.0688553751
1335.34998	0.0690022111
1333.92027	0.0691466108
1332.49056	0.0692834929
1331.06085	0.0694238544
1329.63114	0.0695856512
1328.20143	0.0697826520
1326.77172	0.0700179636
1325.34201	0.0702848136
1323.91229	0.0705725998
1322.48258	0.0708729699
1321.05287	0.0711818784
1319.62316	0.0714962259
1318.19345	0.0718082935
1316.76374	0.0721044838
1315.33403	0.0723708123
1313.90432	0.0726033747
1312.47461	0.0728131607
1311.04490	0.0730202049
1309.61519	0.0732391998
1308.18547	0.0734701157
1306.75576	0.0736997649
1305.32605	0.0739137083
1303.89634	0.0741073936
1302.46663	0.0742867962
1301.03692	0.0744609535
1299.60721	0.0746337399
1298.17750	0.0748010278
1296.74779	0.0749528110
1295.31808	0.0750798434
1293.88837	0.0751791224
1292.45865	0.0752566010
1291.02894	0.0753245428
1289.59923	0.0753956437
1288.16952	0.0754765421
1286.73981	0.0755658075
1285.31010	0.0756558329
1283.88039	0.0757383853
1282.45068	0.0758089349
1281.02097	0.0758707970
1279.59126	0.0759360641
1278.16155	0.0760232657
1276.73183	0.0761500895
1275.30212	0.0763261095
1273.87241	0.0765506700
1272.44270	0.0768188164
1271.01299	0.0771298856
1269.58328	0.0774920061
1268.15357	0.0779191628
1266.72386	0.0784231350
1265.29415	0.0790083632
1263.86444	0.0796695352
1262.43473	0.0803937912
1261.00501	0.0811626315
1259.57530	0.0819550306
1258.14559	0.0827491283
1256.71588	0.0835222155
1255.28617	0.0842499137
1253.85646	0.0849052668
1252.42675	0.0854603127
1250.99704	0.0858909339
1249.56733	0.0861810073
1248.13762	0.0863229930
1246.70791	0.0863181278
1245.27819	0.0861761123
1243.84848	0.0859155357
1242.41877	0.0855618641
1240.98906	0.0851408243
1239.55935	0.0846716911
1238.12964	0.0841625780
1236.69993	0.0836158767
1235.27022	0.0830343813
1233.84051	0.0824267790
1232.41080	0.0818066224
1230.98109	0.0811865330
1229.55137	0.0805731565
1228.12166	0.0799670592
1226.69195	0.0793656260
1225.26224	0.0787678510
1223.83253	0.0781738684
1222.40282	0.0775835440
1220.97311	0.0769936517
1219.54340	0.0763986036
1218.11369	0.0757941678
1216.68398	0.0751811266
1215.25427	0.0745688230
1213.82455	0.0739736781
1212.39484	0.0734145641
1210.96513	0.0729067251
1209.53542	0.0724586472
1208.10571	0.0720733479
1206.67600	0.0717531145
1205.24629	0.0715023950
1203.81658	0.0713270977
1202.38687	0.0712300688
1200.95716	0.0712101534
1199.52745	0.0712640733
1198.09774	0.0713915303
1196.66802	0.0715968236
1195.23831	0.0718853846
1193.80860	0.0722575635
1192.37889	0.0727039874
1190.94918	0.0732076764
1189.51947	0.0737501979
1188.08976	0.0743185580
1186.66005	0.0749075636
1185.23034	0.0755195096
1183.80063	0.0761612281
1182.37092	0.0768419877
1180.94120	0.0775706396
1179.51149	0.0783537179
1178.08178	0.0791926906
1176.65207	0.0800823048
1175.22236	0.0810117796
1173.79265	0.0819681287
1172.36294	0.0829398409
1170.93323	0.0839178115
1169.50352	0.0848949403
1168.07381	0.0858641192
1166.64410	0.0868201256
1165.21438	0.0877646506
1163.78467	0.0887086615
1162.35496	0.0896704495
1160.92525	0.0906662717
1159.49554	0.0917006284
1158.06583	0.0927633569
1156.63612	0.0938356295
1155.20641	0.0949002802
1153.77670	0.0959475636
1152.34699	0.0969760865
1150.91728	0.0979900807
1149.48756	0.0989978984
1148.05785	0.1000138000
1146.62814	0.1010582447
1145.19843	0.1021557748
1143.76872	0.1033295020
1142.33901	0.1045949683
1140.90930	0.1059564650
1139.47959	0.1074073240
1138.04988	0.1089339033
1136.62017	0.1105225235
1135.19046	0.1121655628
1133.76074	0.1138621494
1132.33103	0.1156139001
1130.90132	0.1174184307
1129.47161	0.1192657799
1128.04190	0.1211395711
1126.61219	0.1230215430
1125.18248	0.1248952821
1123.75277	0.1267472953
1122.32306	0.1285677105
1120.89335	0.1303513646
1119.46364	0.1320998371
1118.03392	0.1338202655
1116.60421	0.1355200857
1115.17450	0.1372004449
1113.74479	0.1388520896
1112.31508	0.1404580325
1110.88537	0.1419993490
1109.45566	0.1434619725
1108.02595	0.1448385864
1106.59624	0.1461262554
1105.16653	0.1473212093
1103.73682	0.1484144628
1102.30710	0.1493911594
1100.87739	0.1502333581
1099.44768	0.1509304494
1098.01797	0.1514887363
1096.58826	0.1519348323
1095.15855	0.1523080021
1093.72884	0.1526422352
1092.29913	0.1529481709
1090.86942	0.1532060504
1089.43971	0.1533737928
1088.01000	0.1534049809
1086.58028	0.1532656997
1085.15057	0.1529408395
1083.72086	0.1524296254
1082.29115	0.1517373174
1080.86144	0.1508705765
1079.43173	0.1498390883
1078.00202	0.1486571580
1076.57231	0.1473424286
1075.14260	0.1459108144
1073.71289	0.1443745941
1072.28318	0.1427470148
1070.85346	0.1410482079
1069.42375	0.1393042505
1067.99404	0.1375370324
1066.56433	0.1357523501
1065.13462	0.1339360625
1063.70491	0.1320621967
1062.27520	0.1301070452
1060.84549	0.1280590594
1059.41578	0.1259175688
1057.98607	0.1236884147
1056.55636	0.1213803291
1055.12664	0.1190074980
1053.69693	0.1165908724
1052.26722	0.1141571850
1050.83751	0.1117336825
1049.40780	0.1093453020
1047.97809	0.1070150882
1046.54838	0.1047650799
1045.11867	0.1026146859
1043.68896	0.1005771756
1042.25925	0.0986584276
1040.82954	0.0968586579
1039.39983	0.0951747522
1037.97011	0.0935995802
1036.54040	0.0921195969
1035.11069	0.0907151997
1033.68098	0.0893652216
1032.25127	0.0880545229
1030.82156	0.0867779553
1029.39185	0.0855412483
1027.96214	0.0843569338
1026.53243	0.0832401812
1025.10272	0.0822038203
1023.67301	0.0812563822
1022.24329	0.0804040357
1020.81358	0.0796533003
1019.38387	0.0790137351
1017.95416	0.0784975961
1016.52445	0.0781180859
1015.09474	0.0778874755
1013.66503	0.0778152645
1012.23532	0.0779056251
1010.80561	0.0781558603
1009.37590	0.0785572454
1007.94619	0.0791020244
1006.51647	0.0797885582
1005.08676	0.0806199387
1003.65705	0.0815921649
1002.22734	0.0826813877
1000.79763	0.0838410035
999.36792	0.0850112587
997.93821	0.0861356109
996.50850	0.0871707126
995.07879	0.0880840421
993.64908	0.0888439491
992.21937	0.0894132778
990.78965	0.0897531956
989.35994	0.0898363739
987.93023	0.0896583274
986.50052	0.0892394036
985.07081	0.0886164680
983.64110	0.0878290683
982.21139	0.0869105533
980.78168	0.0858851895
979.35197	0.0847697854
977.92226	0.0835768059
976.49255	0.0823163465
975.06283	0.0810002685
973.63312	0.0796452761
972.20341	0.0782749131
970.77370	0.0769164264
969.34399	0.0755956024
967.91428	0.0743323490
966.48457	0.0731400922
965.05486	0.0720282421
963.62515	0.0710048229
962.19544	0.0700754225
960.76573	0.0692425072
959.33601	0.0685052872
957.90630	0.0678617284
956.47659	0.0673121810
955.04688	0.0668593645
953.61717	0.0665050596
952.18746	0.0662447140
950.75775	0.0660645664
949.32804	0.0659461617
947.89833	0.0658740401
946.46862	0.0658398196
945.03891	0.0658387020
943.60919	0.0658603311
942.17948	0.0658845827
940.74977	0.0658864230
939.32006	0.0658475012
937.89035	0.0657629818
936.46064	0.0656391233
935.03093	0.0654854700
933.60122	0.0653092787
932.17151	0.0651163161
930.74180	0.0649127364
929.31209	0.0647059456
927.88237	0.0645023510
926.45266	0.0643058419
925.02295	0.0641199574
923.59324	0.0639495328
922.16353	0.0637976453
920.73382	0.0636576563
919.30411	0.0635082051
917.87440	0.0633165240
916.44469	0.0630541295
915.01498	0.0627136230
913.58527	0.0623167530
912.15555	0.0619068705
910.72584	0.0615318269
909.29613	0.0612274371
907.86642	0.0610118806
906.43671	0.0608888045
905.00700	0.0608541705
903.57729	0.0608986020
902.14758	0.0610082150
900.71787	0.0611669682
899.28816	0.0613635778
897.85845	0.0615990274
896.42873	0.0618872009
894.99902	0.0622457638
893.56931	0.0626818612
892.13960	0.0631826743
890.70989	0.0637199432
889.28018	0.0642630383
887.85047	0.0647930577
886.42076	0.0653048828
884.99105	0.0657996908
883.56134	0.0662748665
882.13163	0.0667235106
880.70192	0.0671409592
879.27220	0.0675308928
877.84249	0.0679028630
876.41278	0.0682643056
874.98307	0.0686140209
873.55336	0.0689439252
872.12365	0.0692451224
870.69394	0.0695119798
869.26423	0.0697399750
867.83452	0.0699208006
866.40481	0.0700417534
864.97510	0.0700912997
863.54538	0.0700672418
862.11567	0.0699784905
860.68596	0.0698372200
859.25625	0.0696478561
857.82654	0.0694016889
856.39683	0.0690848753
854.96712	0.0686937273
853.53741	0.0682445243
852.10770	0.0677710697
850.67799	0.0673090965
849.24828	0.0668808967
847.81856	0.0664912686
846.38885	0.0661325008
844.95914	0.0657934919
843.52943	0.0654654801
842.09972	0.0651405826
840.67001	0.0648112372
839.24030	0.0644696802
837.81059	0.0641127527
836.38088	0.0637456924
834.95117	0.0633816943
833.52146	0.0630337149
832.09174	0.0627029166
830.66203	0.0623723939
829.23232	0.0620159954
827.80261	0.0616185702
826.37290	0.0611929260
824.94319	0.0607778803
823.51348	0.0604171045
822.08377	0.0601351410
820.65406	0.0599277616
819.22435	0.0597721078
817.79464	0.0596448369
816.36492	0.0595325977
814.93521	0.0594318174
813.50550	0.0593426004
812.07579	0.0592656583
810.64608	0.0592033230
809.21637	0.0591612272
807.78666	0.0591480583
806.35695	0.0591700375
804.92724	0.0592253059
803.49753	0.0593001954
802.06782	0.0593722761
800.63810	0.0594205372
799.20839	0.0594329126
797.77868	0.0594071522
796.34897	0.0593452118
794.91926	0.0592487156
793.48955	0.0591214821
792.05984	0.0589783899
790.63013	0.0588496327
789.20042	0.0587757416
787.77071	0.0587921888
786.34100	0.0589131936
784.91128	0.0591205619
783.48157	0.0593642332
782.05186	0.0595765710
780.62215	0.0596980564
779.19244	0.0597042963
777.76273	0.0596192107
776.33302	0.0595011003
774.90331	0.0594103858
773.47360	0.0593781248
772.04389	0.0593972094
770.61418	0.0594388507
769.18446	0.0594783612
767.75475	0.0595104210
766.32504	0.0595465228
764.89533	0.0596027002
763.46562	0.0596917011
762.03591	0.0598188378
760.60620	0.0599813424
759.17649	0.0601638034
757.74678	0.0603385456
756.31707	0.0604760721
754.88736	0.0605621301
753.45764	0.0606074855
752.02793	0.0606401972
750.59822	0.0606840700
749.16851	0.0607403666
747.73880	0.0607894026
746.30909	0.0608078949
744.87938	0.0607908927
743.44967	0.0607597493
742.01996	0.0607487038
740.59025	0.0607816614
739.16054	0.0608522035
737.73082	0.0609265380
736.30111	0.0609702058
734.87140	0.0609805733
733.44169	0.0610000826
732.01198	0.0610955693
730.58227	0.0613159090
729.15256	0.0616570227
727.72285	0.0620626956
726.29314	0.0624585263
724.86343	0.0627950057
723.43372	0.0630666092
722.00401	0.0633013695
720.57429	0.0635308325
719.14458	0.0637685061
717.71487	0.0640086234
716.28516	0.0642419979
714.85545	0.0644699484
713.42574	0.0647054985
711.99603	0.0649625733
710.56632	0.0652443245
709.13661	0.0655399188
707.70690	0.0658293664
706.27719	0.0660903007
704.84747	0.0663036034
703.41776	0.0664555207
701.98805	0.0665385500
700.55834	0.0665519759
699.12863	0.0665004998
697.69892	0.0663942322
696.26921	0.0662492663
694.83950	0.0660878345
693.40979	0.0659352541
691.98008	0.0658134297
690.55037	0.0657320470
689.12065	0.0656858236
687.69094	0.0656590834
686.26123	0.0656364113
684.83152	0.0656132549
683.40181	0.0655989572
681.97210	0.0656103045
680.54239	0.0656600147
679.11268	0.0657456890
677.68297	0.0658478886
676.25326	0.0659385994
674.82355	0.0659941956
673.39383	0.0660045594
671.96412	0.0659752414
670.53441	0.0659293532
669.10470	0.0659085363
667.67499	0.0659519807
666.24528	0.0660595894
664.81557	0.0661896020
663.38586	0.0662966669
661.95615	0.0663559288
660.52644	0.0663612038
659.09673	0.0663169920
657.66701	0.0662344918
656.23730	0.0661293715
654.80759	0.0660211071
653.37788	0.0659282058
651.94817	0.0658625290
650.51846	0.0658247843
649.08875	0.0658076182
647.65904	0.0658004731
646.22933	0.0657920763
644.79962	0.0657692105
643.36991	0.0657237396
641.94019	0.0656653792
640.51048	0.0656256005
639.08077	0.0656390935
637.65106	0.0657103956
636.22135	0.0657930076
634.79164	0.0658046901
633.36193	0.0656666979
631.93222	0.0653374046
630.50251	0.0648188367
629.07280	0.0641439632
627.64309	0.0633637235
626.21337	0.0625432432
624.78366	0.0617590100
623.35395	0.0610851720
621.92424	0.0605698079
620.49453	0.0602153018
619.06482	0.0599780157
617.63511	0.0597862788
616.20540	0.0595734231
614.77569	0.0593102239
613.34598	0.0590158999
611.91627	0.0587383099
610.48655	0.0585166998
609.05684	0.0583607480
607.62713	0.0582604446
606.19742	0.0582087338
604.76771	0.0582106858
603.33800	0.0582741797
601.90829	0.0584029146
600.47858	0.0585962348
599.04887	0.0588497818
