3997.47168	0.0367741957
3996.04197	0.0367330946
3994.61226	0.0366925038
3993.18255	0.0366711505
3991.75284	0.0366857685
3990.32312	0.0367424749
3988.89341	0.0368325487
3987.46370	0.0369345322
3986.03399	0.0370225869
3984.60428	0.0370770805
3983.17457	0.0370900519
3981.74486	0.0370683707
3980.31515	0.0370290428
3978.88544	0.0369905382
3977.45573	0.0369640142
3976.02602	0.0369517840
3974.59630	0.0369494706
3973.16659	0.0369526856
3971.73688	0.0369584076
3970.30717	0.0369615331
3968.87746	0.0369536690
3967.44775	0.0369258523
3966.01804	0.0368764214
3964.58833	0.0368153900
3963.15862	0.0367615186
3961.72891	0.0367342196
3960.29920	0.0367448404
3958.86948	0.0367929041
3957.43977	0.0368662514
3956.01006	0.0369450189
3954.58035	0.0370066352
3953.15064	0.0370339490
3951.72093	0.0370218568
3950.29122	0.0369777419
3948.86151	0.0369176790
3947.43180	0.0368569791
3946.00209	0.0368085131
3944.57238	0.0367839746
3943.14266	0.0367963426
3941.71295	0.0368513167
3940.28324	0.0369370133
3938.85353	0.0370243080
3937.42382	0.0370788574
3935.99411	0.0370780677
3934.56440	0.0370228440
3933.13469	0.0369362533
3931.70498	0.0368513986
3930.27527	0.0367946513
3928.84556	0.0367749594
3927.41585	0.0367856920
3925.98613	0.0368120633
3924.55642	0.0368362106
3923.12671	0.0368430577
3921.69700	0.0368254483
3920.26729	0.0367904268
3918.83758	0.0367580839
3917.40787	0.0367518291
3915.97816	0.0367810428
3914.54845	0.0368339866
3913.11874	0.0368828475
3911.68903	0.0368981510
3910.25931	0.0368597955
3908.82960	0.0367597453
3907.39989	0.0366045721
3905.97018	0.0364179239
3904.54047	0.0362461545
3903.11076	0.0361522920
3901.68105	0.0361850709
3900.25134	0.0363401212
3898.82163	0.0365594290
3897.39192	0.0367726758
3895.96221	0.0369319394
3894.53249	0.0370213203
3893.10278	0.0370522998
3891.67307	0.0370551497
3890.24336	0.0370618850
3888.81365	0.0370872878
3887.38394	0.0371191762
3885.95423	0.0371276625
3884.52452	0.0370889530
3883.09481	0.0370051675
3881.66510	0.0369061269
3880.23539	0.0368258134
3878.80567	0.0367734097
3877.37596	0.0367307551
3875.94625	0.0366718844
3874.51654	0.0365887992
3873.08683	0.0365013406
3871.65712	0.0364441313
3870.22741	0.0364374593
3868.79770	0.0364714377
3867.36799	0.0365258940
3865.93828	0.0365976989
3864.50857	0.0366968699
3863.07885	0.0368144587
3861.64914	0.0369047709
3860.21943	0.0369053930
3858.78972	0.0367736071
3857.36001	0.0365164578
3855.93030	0.0362166390
3854.50059	0.0360435173
3853.07088	0.0361562334
3851.64117	0.0365240611
3850.21146	0.0369476117
3848.78175	0.0372635908
3847.35203	0.0374178439
3845.92232	0.0374194533
3844.49261	0.0373037867
3843.06290	0.0371242799
3841.63319	0.0369493589
3840.20348	0.0368442126
3838.77377	0.0368392281
3837.34406	0.0369110554
3835.91435	0.0370066613
3834.48464	0.0370914899
3833.05493	0.0371649116
3831.62521	0.0372381210
3830.19550	0.0373061262
3828.76579	0.0373420939
3827.33608	0.0373159163
3825.90637	0.0372169688
3824.47666	0.0370647050
3823.04695	0.0369043499
3821.61724	0.0367916375
3820.18753	0.0367725343
3818.75782	0.0368627273
3817.32811	0.0370410532
3815.89839	0.0372591913
3814.46868	0.0374628492
3813.03897	0.0376122035
3811.60926	0.0376915038
3810.17955	0.0377035886
3808.74984	0.0376624241
3807.32013	0.0375860110
3805.89042	0.0374919996
3804.46071	0.0373973884
3803.03100	0.0373207964
3801.60129	0.0372871421
3800.17157	0.0373216420
3798.74186	0.0374358445
3797.31215	0.0376166068
3795.88244	0.0378326066
3794.45273	0.0380462557
3793.02302	0.0382264815
3791.59331	0.0383534208
3790.16360	0.0384219103
3788.73389	0.0384405777
3787.30418	0.0384306200
3785.87447	0.0384184904
3784.44475	0.0384247378
3783.01504	0.0384555385
3781.58533	0.0385018662
3780.15562	0.0385477506
3778.72591	0.0385775939
3777.29620	0.0385802239
3775.86649	0.0385504067
3774.43678	0.0384906940
3773.00707	0.0384159423
3771.57736	0.0383527689
3770.14765	0.0383304320
3768.71794	0.0383631773
3767.28822	0.0384360217
3765.85851	0.0385153890
3764.42880	0.0385712869
3762.99909	0.0385925323
3761.56938	0.0385862812
3760.13967	0.0385681465
3758.70996	0.0385472402
3757.28025	0.0385138020
3755.85054	0.0384434313
3754.42083	0.0383149944
3752.99112	0.0381324999
3751.56140	0.0379350260
3750.13169	0.0377760977
3748.70198	0.0376911387
3747.27227	0.0376941562
3745.84256	0.0378005803
3744.41285	0.0380227193
3742.98314	0.0383341089
3741.55343	0.0386632085
3740.12372	0.0389325581
3738.69401	0.0390940644
3737.26430	0.0391384512
3735.83458	0.0391013697
3734.40487	0.0390525423
3732.97516	0.0390520319
3731.54545	0.0391074605
3730.11574	0.0391879119
3728.68603	0.0392651483
3727.25632	0.0393380038
3725.82661	0.0394314229
3724.39690	0.0395764373
3722.96719	0.0397801362
3721.53748	0.0400120877
3720.10776	0.0402252190
3718.67805	0.0403841361
3717.24834	0.0404759049
3715.81863	0.0405027866
3714.38892	0.0404808484
3712.95921	0.0404480323
3711.52950	0.0404630639
3710.09979	0.0405679494
3708.67008	0.0407456160
3707.24037	0.0409417562
3705.81066	0.0411187746
3704.38094	0.0412802398
3702.95123	0.0414546095
3701.52152	0.0416652896
3700.09181	0.0419067703
3698.66210	0.0421492718
3697.23239	0.0423652828
3695.80268	0.0425496511
3694.37297	0.0427230187
3692.94326	0.0429220535
3691.51355	0.0431824811
3690.08384	0.0435112119
3688.65412	0.0438690335
3687.22441	0.0441986583
3685.79470	0.0444689132
3684.36499	0.0446785353
3682.93528	0.0448336676
3681.50557	0.0449405052
3680.07586	0.0450188555
3678.64615	0.0451189913
3677.21644	0.0453148745
3675.78673	0.0456583686
3674.35702	0.0461379029
3672.92730	0.0467004292
3671.49759	0.0473121442
3670.06788	0.0479713529
3668.63817	0.0486751087
3667.20846	0.0494032390
3665.77875	0.0501332320
3664.34904	0.0508532785
3662.91933	0.0515530705
3661.48962	0.0522144288
3660.05991	0.0528187938
3658.63020	0.0533642843
3657.20048	0.0538733639
3655.77077	0.0543765239
3654.34106	0.0548949540
3652.91135	0.0554516502
3651.48164	0.0560990945
3650.05193	0.0569116138
3648.62222	0.0579113364
3647.19251	0.0590097010
3645.76280	0.0600849874
3644.33309	0.0610877052
3642.90338	0.0620350130
3641.47366	0.0629550964
3640.04395	0.0638594478
3638.61424	0.0647447035
3637.18453	0.0656038299
3635.75482	0.0664307252
3634.32511	0.0672311559
3632.89540	0.0680414438
3631.46569	0.0689383447
3630.03598	0.0700001419
3628.60627	0.0712142959
3627.17656	0.0724454969
3625.74684	0.0735553801
3624.31713	0.0745117813
3622.88742	0.0753706694
3621.45771	0.0762097239
3620.02800	0.0770861357
3618.59829	0.0780214444
3617.16858	0.0790030509
3615.73887	0.0800012872
3614.30916	0.0809933767
3612.87945	0.0819806978
3611.44974	0.0829895660
3610.02003	0.0840492621
3608.59031	0.0851575509
3607.16060	0.0862711072
3605.73089	0.0873381793
3604.30118	0.0883348808
3602.87147	0.0892689452
3601.44176	0.0901606083
3600.01205	0.0910300016
3598.58234	0.0918972716
3597.15263	0.0927798972
3595.72292	0.0936825275
3594.29321	0.0945911333
3592.86349	0.0954935774
3591.43378	0.0964056179
3590.00407	0.0973702148
3588.57436	0.0984204262
3587.14465	0.0995348990
3585.71494	0.1006401628
3584.28523	0.1016694307
3582.85552	0.1026072130
3581.42581	0.1034771428
3579.99610	0.1043127403
3578.56639	0.1051392332
3577.13667	0.1059682295
3575.70696	0.1067961603
3574.27725	0.1076069623
3572.84754	0.1083896831
3571.41783	0.1091566086
3569.98812	0.1099487692
3568.55841	0.1108161658
3567.12870	0.1117817983
3565.69899	0.1128199920
3564.26928	0.1138785332
3562.83957	0.1149166003
3561.40985	0.1159158722
3559.98014	0.1168697476
3558.55043	0.1177787259
3557.12072	0.1186542735
3555.69101	0.1195168197
3554.26130	0.1203865930
3552.83159	0.1212745979
3551.40188	0.1221852452
3549.97217	0.1231165677
3548.54246	0.1240601912
3547.11275	0.1249981374
3545.68303	0.1259094775
3544.25332	0.1267853528
3542.82361	0.1276371777
3541.39390	0.1284888089
3539.96419	0.1293599904
3538.53448	0.1302564144
3537.10477	0.1311649978
3535.67506	0.1320570260
3534.24535	0.1329044998
3532.81564	0.1337005049
3531.38593	0.1344698220
3529.95621	0.1352554113
3528.52650	0.1360877156
3527.09679	0.1369629651
3525.66708	0.1378497183
3524.23737	0.1387179643
3522.80766	0.1395586580
3521.37795	0.1403818876
3519.94824	0.1412011534
3518.51853	0.1420226544
3517.08882	0.1428404599
3515.65911	0.1436371356
3514.22939	0.1443921477
3512.79968	0.1451000124
3511.36997	0.1457853615
3509.94026	0.1464939862
3508.51055	0.1472626328
3507.08084	0.1480938345
3505.65113	0.1489580721
3504.22142	0.1498178095
3502.79171	0.1506460756
3501.36200	0.1514287889
3499.93229	0.1521618366
3498.50257	0.1528521627
3497.07286	0.1535201520
3495.64315	0.1541907936
3494.21344	0.1548791528
3492.78373	0.1555820107
3491.35402	0.1562845856
3489.92431	0.1569706649
3488.49460	0.1576294601
3487.06489	0.1582607627
3485.63518	0.1588790119
3484.20547	0.1595115215
3482.77575	0.1601805240
3481.34604	0.1608823091
3479.91633	0.1615849286
3478.48662	0.1622550935
3477.05691	0.1628883630
3475.62720	0.1635106802
3474.19749	0.1641515344
3472.76778	0.1648161858
3471.33807	0.1654803753
3469.90836	0.1661062241
3468.47865	0.1666649580
3467.04893	0.1671495587
3465.61922	0.1675783098
3464.18951	0.1679875851
3462.75980	0.1684136838
3461.33009	0.1688731611
3459.90038	0.1693580449
3458.47067	0.1698494852
3457.04096	0.1703346968
3455.61125	0.1708097458
3454.18154	0.1712727994
3452.75183	0.1717227846
3451.32212	0.1721669137
3449.89240	0.1726229489
3448.46269	0.1731029451
3447.03298	0.1735953987
3445.60327	0.1740706712
3444.17356	0.1745081693
3442.74385	0.1749183387
3441.31414	0.1753316373
3439.88443	0.1757699400
3438.45472	0.1762277484
3437.02501	0.1766785383
3435.59530	0.1770941168
3434.16558	0.1774568260
3432.73587	0.1777643412
3431.30616	0.1780291647
3429.87645	0.1782757789
3428.44674	0.1785293519
3427.01703	0.1788035184
3425.58732	0.1790955514
3424.15761	0.1793957502
3422.72790	0.1796987653
3421.29819	0.1800062954
3419.86848	0.1803196520
3418.43876	0.1806355566
3417.00905	0.1809471846
3415.57934	0.1812491119
3414.14963	0.1815351844
3412.71992	0.1817970872
3411.29021	0.1820276976
3409.86050	0.1822311729
3408.43079	0.1824263483
3407.00108	0.1826389283
3405.57137	0.1828856766
3404.14166	0.1831627637
3402.71194	0.1834458709
3401.28223	0.1837032288
3399.85252	0.1839146167
3398.42281	0.1840848476
3396.99310	0.1842398643
3395.56339	0.1844046414
3394.13368	0.1845797449
3392.70397	0.1847389489
3391.27426	0.1848524809
3389.84455	0.1849155575
3388.41484	0.1849555820
3386.98512	0.1850151122
3385.55541	0.1851241291
3384.12570	0.1852851510
3382.69599	0.1854756773
3381.26628	0.1856618822
3379.83657	0.1858160049
3378.40686	0.1859312505
3376.97715	0.1860280931
3375.54744	0.1861449182
3374.11773	0.1863136739
3372.68802	0.1865374744
3371.25830	0.1867848188
3369.82859	0.1870071739
3368.39888	0.1871647239
3366.96917	0.1872446686
3365.53946	0.1872645169
3364.10975	0.1872594953
3362.68004	0.1872639507
3361.25033	0.1872954369
3359.82062	0.1873550415
3358.39091	0.1874400526
3356.96120	0.1875562072
3355.53148	0.1877145916
3354.10177	0.1879133731
3352.67206	0.1881257743
3351.24235	0.1883107126
3349.81264	0.1884414554
3348.38293	0.1885259151
3346.95322	0.1886011213
3345.52351	0.1887062788
3344.09380	0.1888574362
3342.66409	0.1890394241
3341.23438	0.1892173141
3339.80466	0.1893543303
3338.37495	0.1894287914
3336.94524	0.1894431710
3335.51553	0.1894270331
3334.08582	0.1894256771
3332.65611	0.1894818097
3331.22640	0.1896176636
3329.79669	0.1898258477
3328.36698	0.1900757253
3326.93727	0.1903268993
3325.50756	0.1905472726
3324.07784	0.1907240152
3322.64813	0.1908643991
3321.21842	0.1909883469
3319.78871	0.1911169887
3318.35900	0.1912678778
3316.92929	0.1914557666
3315.49958	0.1916963160
3314.06987	0.1920022368
3312.64016	0.1923761368
3311.21045	0.1928008348
3309.78074	0.1932367831
3308.35102	0.1936296523
3306.92131	0.1939274818
3305.49160	0.1941026151
3304.06189	0.1941687912
3302.63218	0.1941785812
3301.20247	0.1941994280
3299.77276	0.1942765117
3298.34305	0.1944085658
3296.91334	0.1945501119
3295.48363	0.1946418881
3294.05392	0.1946448833
3292.62421	0.1945561916
3291.19449	0.1944009960
3289.76478	0.1942111701
3288.33507	0.1940047592
3286.90536	0.1937793493
3285.47565	0.1935235411
3284.04594	0.1932327449
3282.61623	0.1929193288
3281.18652	0.1926060170
3279.75681	0.1923103184
3278.32710	0.1920301169
3276.89739	0.1917420775
3275.46767	0.1914096326
3274.03796	0.1909952909
3272.60825	0.1904713959
3271.17854	0.1898303032
3269.74883	0.1890886277
3268.31912	0.1882853210
3266.88941	0.1874668747
3265.45970	0.1866697818
3264.02999	0.1859098077
3262.60028	0.1851876080
3261.17057	0.1844974309
3259.74085	0.1838319153
3258.31114	0.1831792593
3256.88143	0.1825231612
3255.45172	0.1818529963
3254.02201	0.1811744720
3252.59230	0.1805110723
3251.16259	0.1798849255
3249.73288	0.1792984158
3248.30317	0.1787290871
3246.87346	0.1781452894
3245.44375	0.1775276959
3244.01403	0.1768834144
3242.58432	0.1762429029
3241.15461	0.1756437719
3239.72490	0.1751127392
3238.29519	0.1746522188
3236.86548	0.1742388308
3235.43577	0.1738333255
3234.00606	0.1733980924
3232.57635	0.1729162335
3231.14664	0.1723986715
3229.71693	0.1718766540
3228.28721	0.1713839918
3226.85750	0.1709376276
3225.42779	0.1705312729
3223.99808	0.1701423824
3222.56837	0.1697494090
3221.13866	0.1693438143
3219.70895	0.1689300984
3218.27924	0.1685147136
3216.84953	0.1680963635
3215.41982	0.1676651239
3213.99011	0.1672136188
3212.56039	0.1667458713
3211.13068	0.1662769020
3209.70097	0.1658239514
3208.27126	0.1653954238
3206.84155	0.1649879813
3205.41184	0.1645882875
3203.98213	0.1641788036
3202.55242	0.1637437791
3201.12271	0.1632768810
3199.69300	0.1627855897
3198.26329	0.1622877717
3196.83357	0.1618009508
3195.40386	0.1613303125
3193.97415	0.1608683914
3192.54444	0.1604030430
3191.11473	0.1599264741
3189.68502	0.1594377905
3188.25531	0.1589394808
3186.82560	0.1584339291
3185.39589	0.1579258889
3183.96618	0.1574213803
3182.53647	0.1569242179
3181.10675	0.1564304829
3179.67704	0.1559289992
3178.24733	0.1554097831
3176.81762	0.1548732668
3175.38791	0.1543313414
3173.95820	0.1537977457
3172.52849	0.1532759666
3171.09878	0.1527549326
3169.66907	0.1522156000
3168.23936	0.1516475230
3166.80965	0.1510589123
3165.37993	0.1504750699
3163.95022	0.1499220282
3162.52051	0.1494089067
3161.09080	0.1489246488
3159.66109	0.1484500468
3158.23138	0.1479760408
3156.80167	0.1475082189
3155.37196	0.1470555365
3153.94225	0.1466122866
3152.51254	0.1461556107
3151.08283	0.1456599087
3149.65311	0.1451180577
3148.22340	0.1445511729
3146.79369	0.1439961046
3145.36398	0.1434842050
3143.93427	0.1430215836
3142.50456	0.1425882578
3141.07485	0.1421510875
3139.64514	0.1416835040
3138.21543	0.1411776394
3136.78572	0.1406450421
3135.35601	0.1401063800
3133.92629	0.1395785809
3132.49658	0.1390669346
3131.06687	0.1385680735
3129.63716	0.1380796731
3128.20745	0.1376089901
3126.77774	0.1371721476
3125.34803	0.1367864609
3123.91832	0.1364566535
3122.48861	0.1361681074
3121.05890	0.1358903050
3119.62919	0.1355895847
3118.19948	0.1352431774
3116.76976	0.1348475814
3115.34005	0.1344167888
3113.91034	0.1339709908
3112.48063	0.1335247010
3111.05092	0.1330814213
3109.62121	0.1326375902
3108.19150	0.1321937144
3106.76179	0.1317596436
3105.33208	0.1313497722
3103.90237	0.1309714168
3102.47266	0.1306181550
3101.04294	0.1302745938
3099.61323	0.1299312562
3098.18352	0.1295943260
3096.75381	0.1292810887
3095.32410	0.1290051788
3093.89439	0.1287635565
3092.46468	0.1285364181
3091.03497	0.1282996535
3089.60526	0.1280366778
3088.17555	0.1277454346
3086.74584	0.1274359673
3085.31612	0.1271221191
3083.88641	0.1268132627
3082.45670	0.1265062839
3081.02699	0.1261844337
3079.59728	0.1258253157
3078.16757	0.1254150867
3076.73786	0.1249604449
3075.30815	0.1244894490
3073.87844	0.1240394562
3072.44873	0.1236382425
3071.01902	0.1232893467
3069.58930	0.1229683533
3068.15959	0.1226341426
3066.72988	0.1222486943
3065.30017	0.1217968017
3063.87046	0.1212950349
3062.44075	0.1207818016
3061.01104	0.1202988550
3059.58133	0.1198706478
3058.15162	0.1194958985
3056.72191	0.1191520467
3055.29220	0.1188072488
3053.86248	0.1184337512
3052.43277	0.1180177405
3051.00306	0.1175632328
3049.57335	0.1170897484
3048.14364	0.1166221574
3046.71393	0.1161774024
3045.28422	0.1157543510
3043.85451	0.1153342798
3042.42480	0.1148940399
3040.99509	0.1144209206
3039.56538	0.1139192134
3038.13566	0.1134054884
3036.70595	0.1128958836
3035.27624	0.1123984531
3033.84653	0.1119153202
3032.41682	0.1114486530
3030.98711	0.1110023335
3029.55740	0.1105757430
3028.12769	0.1101594791
3026.69798	0.1097385213
3025.26827	0.1093047410
3023.83856	0.1088654175
3022.40884	0.1084409878
3020.97913	0.1080529541
3019.54942	0.1077119783
3018.11971	0.1074116677
3016.69000	0.1071309522
3015.26029	0.1068387255
3013.83058	0.1065033674
3012.40087	0.1061069146
3010.97116	0.1056575328
3009.54145	0.1051910445
3008.11174	0.1047572345
3006.68202	0.1043957919
3005.25231	0.1041176021
3003.82260	0.1039060205
3002.39289	0.1037322655
3000.96318	0.1035738289
2999.53347	0.1034233347
2998.10376	0.1032844186
2996.67405	0.1031615958
2995.24434	0.1030519977
2993.81463	0.1029453874
2992.38492	0.1028328985
2990.95520	0.1027191505
2989.52549	0.1026277319
2988.09578	0.1025948524
2986.66607	0.1026511118
2985.23636	0.1028046831
2983.80665	0.1030352935
2982.37694	0.1033033654
2980.94723	0.1035671607
2979.51752	0.1037983075
2978.08781	0.1039875075
2976.65810	0.1041428074
2975.22838	0.1042822301
2973.79867	0.1044228151
2972.36896	0.1045746803
2970.93925	0.1047389507
2969.50954	0.1049118862
2968.07983	0.1050869972
2966.65012	0.1052536741
2965.22041	0.1053930596
2963.79070	0.1054784954
2962.36099	0.1054849625
2960.93128	0.1053994298
2959.50157	0.1052252799
2958.07185	0.1049754694
2956.64214	0.1046615988
2955.21243	0.1042901576
2953.78272	0.1038711667
2952.35301	0.1034288555
2950.92330	0.1030030400
2949.49359	0.1026344225
2948.06388	0.1023449153
2946.63417	0.1021284238
2945.20446	0.1019611806
2943.77475	0.1018229201
2942.34503	0.1017120332
2940.91532	0.1016423479
2939.48561	0.1016285121
2938.05590	0.1016717926
2936.62619	0.1017579660
2935.19648	0.1018633395
2933.76677	0.1019593105
2932.33706	0.1020135581
2930.90735	0.1019927338
2929.47764	0.1018740460
2928.04793	0.1016589999
2926.61821	0.1013759598
2925.18850	0.1010656953
2923.75879	0.1007571146
2922.32908	0.1004502252
2920.89937	0.1001170501
2919.46966	0.0997181460
2918.03995	0.0992206410
2916.61024	0.0986103863
2915.18053	0.0978939757
2913.75082	0.0970961004
2912.32111	0.0962538421
2910.89139	0.0954106301
2909.46168	0.0946077406
2908.03197	0.0938756019
2906.60226	0.0932276547
2905.17255	0.0926609710
2903.74284	0.0921630561
2902.31313	0.0917212889
2900.88342	0.0913270414
2899.45371	0.0909711719
2898.02400	0.0906393230
2896.59429	0.0903120562
2895.16457	0.0899754167
2893.73486	0.0896288976
2892.30515	0.0892873853
2890.87544	0.0889716521
2889.44573	0.0886983797
2888.01602	0.0884753168
2886.58631	0.0883041993
2885.15660	0.0881836116
2883.72689	0.0881122947
2882.29718	0.0880900621
2880.86747	0.0881172046
2879.43775	0.0881896392
2878.00804	0.0882890075
2876.57833	0.0883751735
2875.14862	0.0883898959
2873.71891	0.0882777497
2872.28920	0.0880110562
2870.85949	0.0876052156
2869.42978	0.0871127546
2868.00007	0.0866011530
2866.57036	0.0861274078
2865.14065	0.0857216194
2863.71093	0.0853852779
2862.28122	0.0851014331
2860.85151	0.0848505348
2859.42180	0.0846200958
2857.99209	0.0844058841
2856.56238	0.0842022970
2855.13267	0.0839933455
2853.70296	0.0837499648
2852.27325	0.0834368467
2850.84354	0.0830269828
2849.41383	0.0825120732
2847.98411	0.0819103271
2846.55440	0.0812642127
2845.12469	0.0806296617
2843.69498	0.0800565630
2842.26527	0.0795689747
2840.83556	0.0791577697
2839.40585	0.0787897855
2837.97614	0.0784300566
2836.54643	0.0780603886
2835.11672	0.0776853487
2833.68701	0.0773240253
2832.25729	0.0769979209
2830.82758	0.0767212287
2829.39787	0.0764956847
2827.96816	0.0763112083
2826.53845	0.0761490762
2825.10874	0.0759890676
2823.67903	0.0758177191
2822.24932	0.0756317377
2820.81961	0.0754357651
2819.38990	0.0752370209
2817.96019	0.0750420317
2816.53047	0.0748561993
2815.10076	0.0746838450
2813.67105	0.0745257288
2812.24134	0.0743745863
2810.81163	0.0742161572
2809.38192	0.0740373060
2807.95221	0.0738359466
2806.52250	0.0736252367
2805.09279	0.0734277442
2803.66308	0.0732609555
2802.23337	0.0731260628
2800.80366	0.0730077401
2799.37394	0.0728855655
2797.94423	0.0727486387
2796.51452	0.0726032853
2795.08481	0.0724653453
2793.65510	0.0723441169
2792.22539	0.0722299293
2790.79568	0.0720984042
2789.36597	0.0719279423
2787.93626	0.0717162564
2786.50655	0.0714846030
2785.07684	0.0712643787
2783.64712	0.0710791200
2782.21741	0.0709348395
2780.78770	0.0708215907
2779.35799	0.0707223639
2777.92828	0.0706190094
2776.49857	0.0704961047
2775.06886	0.0703427941
2773.63915	0.0701570734
2772.20944	0.0699469522
2770.77973	0.0697277859
2769.35002	0.0695143789
2767.92030	0.0693156496
2766.49059	0.0691335872
2765.06088	0.0689680129
2763.63117	0.0688180625
2762.20146	0.0686829314
2760.77175	0.0685592964
2759.34204	0.0684420988
2757.91233	0.0683279857
2756.48262	0.0682195053
2755.05291	0.0681234375
2753.62320	0.0680435374
2752.19348	0.0679722950
2750.76377	0.0678893030
2749.33406	0.0677702799
2747.90435	0.0676019043
2746.47464	0.0673921928
2745.04493	0.0671689361
2743.61522	0.0669639111
2742.18551	0.0667946935
2740.75580	0.0666562021
2739.32609	0.0665270239
2737.89638	0.0663861483
2736.46666	0.0662279800
2735.03695	0.0660656467
2733.60724	0.0659216121
2732.17753	0.0658116192
2730.74782	0.0657350272
2729.31811	0.0656744987
2727.88840	0.0656058490
2726.45869	0.0655068681
2725.02898	0.0653665960
2723.59927	0.0651864186
2722.16956	0.0649796203
2720.73984	0.0647661015
2719.31013	0.0645655394
2717.88042	0.0643902868
2716.45071	0.0642414913
2715.02100	0.0641124249
2713.59129	0.0639934167
2712.16158	0.0638774112
2710.73187	0.0637593940
2709.30216	0.0636339486
2707.87245	0.0634949952
2706.44274	0.0633382946
2705.01302	0.0631656945
2703.58331	0.0629867017
2702.15360	0.0628154650
2700.72389	0.0626649633
2699.29418	0.0625422820
2697.86447	0.0624462701
2696.43476	0.0623688959
2695.00505	0.0622990616
2693.57534	0.0622271225
2692.14563	0.0621470064
2690.71592	0.0620580092
2689.28620	0.0619625188
2687.85649	0.0618650801
2686.42678	0.0617693961
2684.99707	0.0616771616
2683.56736	0.0615881123
2682.13765	0.0614997037
2680.70794	0.0614080653
2679.27823	0.0613079183
2677.84852	0.0611933433
2676.41881	0.0610591322
2674.98910	0.0609034859
2673.55938	0.0607310794
2672.12967	0.0605538562
2670.69996	0.0603874475
2669.27025	0.0602445938
2667.84054	0.0601302944
2666.41083	0.0600407869
2664.98112	0.0599666014
2663.55141	0.0598975420
2662.12170	0.0598256700
2660.69199	0.0597473346
2659.26228	0.0596627146
2657.83256	0.0595752932
2656.40285	0.0594887510
2654.97314	0.0594054572
2653.54343	0.0593245886
2652.11372	0.0592438802
2650.68401	0.0591611974
2649.25430	0.0590771697
2647.82459	0.0589946397
2646.39488	0.0589166619
2644.96517	0.0588448308
2643.53546	0.0587775782
2642.10575	0.0587114617
2640.67603	0.0586435497
2639.24632	0.0585740767
2637.81661	0.0585062131
2636.38690	0.0584436618
2634.95719	0.0583862439
2633.52748	0.0583296902
2632.09777	0.0582686439
2630.66806	0.0582019538
2629.23835	0.0581341200
2627.80864	0.0580726005
2626.37893	0.0580221526
2624.94921	0.0579819195
2623.51950	0.0579475127
2622.08979	0.0579140894
2620.66008	0.0578779466
2619.23037	0.0578355938
2617.80066	0.0577817746
2616.37095	0.0577116683
2614.94124	0.0576244332
2613.51153	0.0575258657
2612.08182	0.0574257523
2610.65211	0.0573335215
2609.22239	0.0572540686
2607.79268	0.0571887158
2606.36297	0.0571376048
2604.93326	0.0571012907
2603.50355	0.0570797063
2602.07384	0.0570691377
2600.64413	0.0570613444
2599.21442	0.0570475906
2597.78471	0.0570222624
2596.35500	0.0569867827
2594.92529	0.0569473207
2593.49557	0.0569113195
2592.06586	0.0568825752
2590.63615	0.0568599142
2589.20644	0.0568400547
2587.77673	0.0568203181
2586.34702	0.0568009913
2584.91731	0.0567851514
2583.48760	0.0567766838
2582.05789	0.0567771569
2580.62818	0.0567850322
2579.19847	0.0567952394
2577.76875	0.0568010211
2576.33904	0.0567971878
2574.90933	0.0567836761
2573.47962	0.0567666516
2572.04991	0.0567555018
2570.62020	0.0567577146
2569.19049	0.0567733496
2567.76078	0.0567949452
2566.33107	0.0568132959
2564.90136	0.0568237416
2563.47165	0.0568297580
2562.04193	0.0568399988
2560.61222	0.0568615682
2559.18251	0.0568954721
2557.75280	0.0569366701
2556.32309	0.0569786653
2554.89338	0.0570163578
2553.46367	0.0570487119
2552.03396	0.0570764318
2550.60425	0.0571018197
2549.17454	0.0571276546
2547.74483	0.0571575947
2546.31511	0.0571954474
2544.88540	0.0572441183
2543.45569	0.0573031865
2542.02598	0.0573678203
2540.59627	0.0574294478
2539.16656	0.0574791171
2537.73685	0.0575122125
2536.30714	0.0575314797
2534.87743	0.0575462878
2533.44772	0.0575681254
2532.01801	0.0576047786
2530.58829	0.0576579832
2529.15858	0.0577242337
2527.72887	0.0577973276
2526.29916	0.0578700192
2524.86945	0.0579356812
2523.43974	0.0579908229
2522.01003	0.0580359399
2520.58032	0.0580761507
2519.15061	0.0581179336
2517.72090	0.0581636876
2516.29119	0.0582107455
2514.86147	0.0582527779
2513.43176	0.0582859032
2512.00205	0.0583134368
2510.57234	0.0583456494
2509.14263	0.0583946817
2507.71292	0.0584670603
2506.28321	0.0585584939
2504.85350	0.0586557575
2503.42379	0.0587443858
2501.99408	0.0588164665
2500.56437	0.0588754825
2499.13465	0.0589307137
2497.70494	0.0589901023
2496.27523	0.0590542145
2494.84552	0.0591194928
2493.41581	0.0591832995
2491.98610	0.0592477061
2490.55639	0.0593172275
2489.12668	0.0593931116
2487.69697	0.0594710559
2486.26726	0.0595440902
2484.83755	0.0596086979
2483.40784	0.0596662201
2481.97812	0.0597212240
2480.54841	0.0597773343
2479.11870	0.0598349683
2477.68899	0.0598934703
2476.25928	0.0599528737
2474.82957	0.0600144230
2473.39986	0.0600787476
2471.97015	0.0601442084
2470.54044	0.0602080151
2469.11073	0.0602684133
2467.68102	0.0603254586
2466.25130	0.0603799485
2464.82159	0.0604315959
2463.39188	0.0604791082
2461.96217	0.0605227016
2460.53246	0.0605642125
2459.10275	0.0606069788
2457.67304	0.0606526099
2456.24333	0.0606985986
2454.81362	0.0607402474
2453.38391	0.0607744269
2451.95420	0.0608022362
2450.52448	0.0608291551
2449.09477	0.0608617626
2447.66506	0.0609044693
2446.23535	0.0609562062
2444.80564	0.0610117018
2443.37593	0.0610631816
2441.94622	0.0611048974
2440.51651	0.0611361228
2439.08680	0.0611616038
2437.65709	0.0611893199
2436.22738	0.0612257980
2434.79766	0.0612725355
2433.36795	0.0613249429
2431.93824	0.0613755658
2430.50853	0.0614179634
2429.07882	0.0614496917
2427.64911	0.0614723861
2426.21940	0.0614898913
2424.78969	0.0615057275
2423.35998	0.0615217462
2421.93027	0.0615369268
2420.50056	0.0615496635
2419.07084	0.0615588501
2417.64113	0.0615647547
2416.21142	0.0615693182
2414.78171	0.0615744181
2413.35200	0.0615814589
2411.92229	0.0615917817
2410.49258	0.0616082177
2409.06287	0.0616343506
2407.63316	0.0616712868
2406.20345	0.0617146082
2404.77374	0.0617536977
2403.34402	0.0617777519
2401.91431	0.0617825575
2400.48460	0.0617722608
2399.05489	0.0617558174
2397.62518	0.0617413446
2396.19547	0.0617335252
2394.76576	0.0617346317
2393.33605	0.0617466569
2391.90634	0.0617690086
2390.47663	0.0617960766
2389.04692	0.0618155636
2387.61720	0.0618138649
2386.18749	0.0617803782
2384.75778	0.0617121309
2383.32807	0.0616130494
2381.89836	0.0614915341
2380.46865	0.0613571405
2379.03894	0.0612173639
2377.60923	0.0610744432
2376.17952	0.0609235018
2374.74981	0.0607537031
2373.32010	0.0605531409
2371.89038	0.0603163242
2370.46067	0.0600505359
2369.03096	0.0597779602
2367.60125	0.0595313832
2366.17154	0.0593413822
2364.74183	0.0592217185
2363.31212	0.0591607541
2361.88241	0.0591290742
2360.45270	0.0591006875
2359.02299	0.0590753593
2357.59328	0.0590845235
2356.16356	0.0591696836
2354.73385	0.0593447685
2353.30414	0.0595782921
2351.87443	0.0598121807
2350.44472	0.0599937662
2349.01501	0.0600929856
2347.58530	0.0601032414
2346.15559	0.0600397773
2344.72588	0.0599368550
2343.29617	0.0598378219
2341.86646	0.0597727597
2340.43674	0.0597438887
2339.00703	0.0597354807
2337.57732	0.0597363450
2336.14761	0.0597456098
2334.71790	0.0597639978
2333.28819	0.0597860105
2331.85848	0.0598027632
2330.42877	0.0598091818
2328.99906	0.0598113500
2327.56935	0.0598246604
2326.13964	0.0598666407
2324.70993	0.0599480309
2323.28021	0.0600659661
2321.85050	0.0602047145
2320.42079	0.0603410713
2318.99108	0.0604546219
2317.56137	0.0605354346
2316.13166	0.0605853423
2314.70195	0.0606158487
2313.27224	0.0606427565
2311.84253	0.0606801435
2310.41282	0.0607347712
2308.98311	0.0608031303
2307.55339	0.0608746298
2306.12368	0.0609370247
2304.69397	0.0609817356
2303.26426	0.0610053875
2301.83455	0.0610093772
2300.40484	0.0609992780
2298.97513	0.0609832518
2297.54542	0.0609688945
2296.11571	0.0609603152
2294.68600	0.0609563254
2293.25629	0.0609526299
2291.82657	0.0609462261
2290.39686	0.0609381273
2288.96715	0.0609322302
2287.53744	0.0609310381
2286.10773	0.0609335676
2284.67802	0.0609357134
2283.24831	0.0609336272
2281.81860	0.0609255582
2280.38889	0.0609121844
2278.95918	0.0608949997
2277.52947	0.0608758479
2276.09975	0.0608565211
2274.67004	0.0608383864
2273.24033	0.0608202815
2271.81062	0.0607991703
2270.38091	0.0607715994
2268.95120	0.0607369132
2267.52149	0.0606987476
2266.09178	0.0606629066
2264.66207	0.0606341548
2263.23236	0.0606137365
2261.80265	0.0605991818
2260.37293	0.0605862364
2258.94322	0.0605698377
2257.51351	0.0605475195
2256.08380	0.0605217181
2254.65409	0.0604995489
2253.22438	0.0604891367
2251.79467	0.0604933016
2250.36496	0.0605043694
2248.93525	0.0605090410
2247.50554	0.0604962483
2246.07583	0.0604650043
2244.64611	0.0604250506
2243.21640	0.0603894405
2241.78669	0.0603687651
2240.35698	0.0603673980
2238.92727	0.0603845604
2237.49756	0.0604144894
2236.06785	0.0604477189
2234.63814	0.0604716986
2233.20843	0.0604759827
2231.77872	0.0604574792
2230.34901	0.0604221933
2228.91929	0.0603810810
2227.48958	0.0603433028
2226.05987	0.0603118949
2224.63016	0.0602852441
2223.20045	0.0602613650
2221.77074	0.0602402501
2220.34103	0.0602234788
2218.91132	0.0602120012
2217.48161	0.0602050722
2216.05190	0.0602017418
2214.62219	0.0602013543
2213.19247	0.0602028705
2211.76276	0.0602035560
2210.33305	0.0602004938
2208.90334	0.0601926744
2207.47363	0.0601811074
2206.04392	0.0601668656
2204.61421	0.0601477176
2203.18450	0.0601189099
2201.75479	0.0600778833
2200.32508	0.0600284226
2198.89537	0.0599798001
2197.46565	0.0599403307
2196.03594	0.0599125177
2194.60623	0.0598925501
2193.17652	0.0598737411
2191.74681	0.0598503575
2190.31710	0.0598201454
2188.88739	0.0597834848
2187.45768	0.0597443022
2186.02797	0.0597080365
2184.59826	0.0596788712
2183.16855	0.0596569851
2181.73883	0.0596381575
2180.30912	0.0596166253
2178.87941	0.0595903769
2177.44970	0.0595623776
2176.01999	0.0595378838
2174.59028	0.0595200695
2173.16057	0.0595064424
2171.73086	0.0594903827
2170.30115	0.0594665445
2168.87144	0.0594356135
2167.44173	0.0594055764
2166.01202	0.0593857802
2164.58230	0.0593795180
2163.15259	0.0593793094
2161.72288	0.0593713000
2160.29317	0.0593432225
2158.86346	0.0592923909
2157.43375	0.0592267290
2156.00404	0.0591581129
2154.57433	0.0590970106
2153.14462	0.0590481348
2151.71491	0.0590116903
2150.28520	0.0589854755
2148.85548	0.0589665584
2147.42577	0.0589517355
2145.99606	0.0589377992
2144.56635	0.0589214638
2143.13664	0.0588994063
2141.70693	0.0588702932
2140.27722	0.0588373914
2138.84751	0.0588099435
2137.41780	0.0587987415
2135.98809	0.0588084012
2134.55838	0.0588319674
2133.12866	0.0588521846
2131.69895	0.0588517673
2130.26924	0.0588237867
2128.83953	0.0587764233
2127.40982	0.0587261319
2125.98011	0.0586865135
2124.55040	0.0586604066
2123.12069	0.0586407930
2121.69098	0.0586191341
2120.26127	0.0585913174
2118.83156	0.0585593842
2117.40184	0.0585272424
2115.97213	0.0584968850
2114.54242	0.0584692806
2113.11271	0.0584456176
2111.68300	0.0584282055
2110.25329	0.0584167130
2108.82358	0.0584071800
2107.39387	0.0583942086
2105.96416	0.0583754368
2104.53445	0.0583534352
2103.10474	0.0583324134
2101.67502	0.0583134070
2100.24531	0.0582934543
2098.81560	0.0582698882
2097.38589	0.0582435429
2095.95618	0.0582191832
2094.52647	0.0582004152
2093.09676	0.0581861213
2091.66705	0.0581725650
2090.23734	0.0581565239
2088.80763	0.0581385009
2087.37792	0.0581209213
2085.94820	0.0581047349
2084.51849	0.0580875725
2083.08878	0.0580663271
2081.65907	0.0580412075
2080.22936	0.0580173619
2078.79965	0.0580026582
2077.36994	0.0580022112
2075.94023	0.0580143146
2074.51052	0.0580306165
2073.08081	0.0580402613
2071.65110	0.0580357648
2070.22138	0.0580160283
2068.79167	0.0579848178
2067.36196	0.0579471290
2065.93225	0.0579061024
2064.50254	0.0578629225
2063.07283	0.0578187667
2061.64312	0.0577756241
2060.21341	0.0577364750
2058.78370	0.0577034503
2057.35399	0.0576781444
2055.92428	0.0576619729
2054.49456	0.0576552637
2053.06485	0.0576562993
2051.63514	0.0576586351
2050.20543	0.0576531366
2048.77572	0.0576330647
2047.34601	0.0575990416
2045.91630	0.0575592890
2044.48659	0.0575246550
2043.05688	0.0575025491
2041.62717	0.0574943349
2040.19746	0.0574958995
2038.76774	0.0575016029
2037.33803	0.0575060360
2035.90832	0.0575050898
2034.47861	0.0574961081
2033.04890	0.0574791171
2031.61919	0.0574579015
2030.18948	0.0574400835
2028.75977	0.0574334934
2027.33006	0.0574408211
2025.90035	0.0574562177
2024.47064	0.0574675910
2023.04092	0.0574636012
2021.61121	0.0574405566
2020.18150	0.0574048050
2018.75179	0.0573670492
2017.32208	0.0573357977
2015.89237	0.0573131107
2014.46266	0.0572959222
2013.03295	0.0572813898
2011.60324	0.0572702847
2010.17353	0.0572670065
2008.74382	0.0572756603
2007.31411	0.0572960675
2005.88439	0.0573214404
2004.45468	0.0573419705
2003.02497	0.0573501252
2001.59526	0.0573473461
2000.16555	0.0573419109
1998.73584	0.0573430657
1997.30613	0.0573540814
1995.87642	0.0573705956
1994.44671	0.0573863126
1993.01700	0.0573984534
1991.58729	0.0574088246
1990.15757	0.0574208498
1988.72786	0.0574354455
1987.29815	0.0574505441
1985.86844	0.0574644618
1984.43873	0.0574763976
1983.00902	0.0574877746
1981.57931	0.0575000979
1980.14960	0.0575138666
1978.71989	0.0575282015
1977.29018	0.0575413518
1975.86047	0.0575526096
1974.43075	0.0575633086
1973.00104	0.0575773790
1971.57133	0.0575999282
1970.14162	0.0576356947
1968.71191	0.0576872788
1967.28220	0.0577524118
1965.85249	0.0578230545
1964.42278	0.0578866415
1962.99307	0.0579343513
1961.56336	0.0579668917
1960.13365	0.0579940490
1958.70393	0.0580274202
1957.27422	0.0580711514
1955.84451	0.0581208356
1954.41480	0.0581683926
1952.98509	0.0582092665
1951.55538	0.0582436621
1950.12567	0.0582730845
1948.69596	0.0582973622
1947.26625	0.0583162792
1945.83654	0.0583312586
1944.40683	0.0583467148
1942.97711	0.0583672933
1941.54740	0.0583961345
1940.11769	0.0584340692
1938.68798	0.0584805347
1937.25827	0.0585347377
1935.82856	0.0585965924
1934.39885	0.0586664826
1932.96914	0.0587436743
1931.53943	0.0588222146
1930.10972	0.0588910468
1928.68001	0.0589381829
1927.25029	0.0589586422
1925.82058	0.0589590892
1924.39087	0.0589552633
1922.96116	0.0589647219
1921.53145	0.0589992069
1920.10174	0.0590605624
1918.67203	0.0591411777
1917.24232	0.0592281856
1915.81261	0.0593098998
1914.38290	0.0593816265
1912.95319	0.0594459437
1911.52347	0.0595083125
1910.09376	0.0595722049
1908.66405	0.0596369691
1907.23434	0.0597010590
1905.80463	0.0597652160
1904.37492	0.0598318800
1902.94521	0.0599023253
1901.51550	0.0599748343
1900.08579	0.0600458719
1898.65608	0.0601117425
1897.22637	0.0601713248
1895.79665	0.0602259785
1894.36694	0.0602801293
1892.93723	0.0603382774
1891.50752	0.0604022034
1890.07781	0.0604690239
1888.64810	0.0605343953
1887.21839	0.0605980195
1885.78868	0.0606649630
1884.35897	0.0607417673
1882.92926	0.0608309433
1881.49955	0.0609295778
1880.06983	0.0610317215
1878.64012	0.0611296892
1877.21041	0.0612139963
1875.78070	0.0612738766
1874.35099	0.0613011532
1872.92128	0.0612964705
1871.49157	0.0612746216
1870.06186	0.0612659790
1868.63215	0.0613061599
1867.20244	0.0614158176
1865.77273	0.0615852475
1864.34301	0.0617807359
1862.91330	0.0619662218
1861.48359	0.0621197671
1860.05388	0.0622385629
1858.62417	0.0623326190
1857.19446	0.0624142624
1855.76475	0.0624899417
1854.33504	0.0625595972
1852.90533	0.0626200810
1851.47562	0.0626675338
1850.04591	0.0626986697
1848.61619	0.0627153218
1847.18648	0.0627306700
1845.75677	0.0627693385
1844.32706	0.0628538802
1842.89735	0.0629859194
1841.46764	0.0631449819
1840.03793	0.0633075982
1838.60822	0.0634602085
1837.17851	0.0635974407
1835.74880	0.0637144297
1834.31909	0.0638068542
1832.88938	0.0638755485
1831.45966	0.0639309064
1830.02995	0.0639904141
1828.60024	0.0640713200
1827.17053	0.0641841665
1825.74082	0.0643300638
1824.31111	0.0645000637
1822.88140	0.0646781549
1821.45169	0.0648477823
1820.02198	0.0649997666
1818.59227	0.0651339963
1817.16256	0.0652548820
1815.73284	0.0653659031
1814.30313	0.0654699951
1812.87342	0.0655737892
1811.44371	0.0656864867
1810.01400	0.0658133104
1808.58429	0.0659500808
1807.15458	0.0660874993
1805.72487	0.0662200525
1804.29516	0.0663489923
1802.86545	0.0664770305
1801.43574	0.0666026399
1800.00602	0.0667211264
1798.57631	0.0668301955
1797.14660	0.0669340417
1795.71689	0.0670433193
1794.28718	0.0671740398
1792.85747	0.0673410818
1791.42776	0.0675470680
1789.99805	0.0677749738
1788.56834	0.0679989979
1787.13863	0.0682024881
1785.70892	0.0683847070
1784.27920	0.0685538426
1782.84949	0.0687171370
1781.41978	0.0688765496
1779.99007	0.0690308288
1778.56036	0.0691780001
1777.13065	0.0693141669
1775.70094	0.0694371611
1774.27123	0.0695573092
1772.84152	0.0697060525
1771.41181	0.0699221715
1769.98210	0.0702125132
1768.55238	0.0705413520
1767.12267	0.0708652586
1765.69296	0.0711669400
1764.26325	0.0714559108
1762.83354	0.0717484728
1761.40383	0.0720523819
1759.97412	0.0723661408
1758.54441	0.0726866350
1757.11470	0.0730125159
1755.68499	0.0733435825
1754.25528	0.0736842453
1752.82556	0.0740523189
1751.39585	0.0744770840
1749.96614	0.0749762803
1748.53643	0.0755323246
1747.10672	0.0761034265
1745.67701	0.0766627640
1744.24730	0.0772108957
1742.81759	0.0777534917
1741.38788	0.0782779753
1739.95817	0.0787595958
1738.52846	0.0791903883
1737.09874	0.0795982927
1735.66903	0.0800412819
1734.23932	0.0805779845
1732.80961	0.0812296942
1731.37990	0.0819692835
1729.95019	0.0827540085
1728.52048	0.0835587978
1727.09077	0.0843765214
1725.66106	0.0852029994
1724.23135	0.0860287175
1722.80164	0.0868472531
1721.37192	0.0876776278
1719.94221	0.0885860547
1718.51250	0.0896726772
1717.08279	0.0909847990
1715.65308	0.0924197882
1714.22337	0.0937931538
1712.79366	0.0950098336
1711.36395	0.0961037278
1709.93424	0.0971604288
1708.50453	0.0982524902
1707.07482	0.0994217247
1705.64510	0.1006959453
1704.21539	0.1021216139
1702.78568	0.1037863046
1701.35597	0.1058065966
1699.92626	0.1082538888
1698.49655	0.1110428497
1697.06684	0.1139125526
1695.63713	0.1165921614
1694.20742	0.1189620495
1692.77771	0.1210445315
1691.34800	0.1229236200
1689.91828	0.1247058585
1688.48857	0.1265317798
1687.05886	0.1285866052
1685.62915	0.1310311705
1684.19944	0.1338127851
1682.76973	0.1365923136
1681.34002	0.1390444338
1679.91031	0.1411423981
1678.48060	0.1430690885
1677.05089	0.1450165808
1675.62118	0.1470875740
1674.19147	0.1492963135
1672.76175	0.1516266167
1671.33204	0.1540694982
1669.90233	0.1565917283
1668.47262	0.1591058969
1667.04291	0.1615275443
1665.61320	0.1638507098
1664.18349	0.1661249250
1662.75378	0.1683485955
1661.32407	0.1704035252
1659.89436	0.1721202135
1658.46465	0.1733832359
1657.03493	0.1741403639
1655.60522	0.1743274927
1654.17551	0.1738525182
1652.74580	0.1727340519
1651.31609	0.1712097526
1649.88638	0.1695343703
1648.45667	0.1677726805
1647.02696	0.1659087539
1645.59725	0.1640257239
1644.16754	0.1622865349
1642.73783	0.1607705206
1641.30811	0.1593907923
1639.87840	0.1579461098
1638.44869	0.1562191993
1637.01898	0.1541061848
1635.58927	0.1517436653
1634.15956	0.1494258791
1632.72985	0.1473100930
1631.30014	0.1453010440
1629.87043	0.1431840062
1628.44072	0.1407590657
1627.01101	0.1379132867
1625.58129	0.1346791089
1624.15158	0.1312437803
1622.72187	0.1278385520
1621.29216	0.1245785505
1619.86245	0.1214160696
1618.43274	0.1182464063
1617.00303	0.1150699183
1615.57332	0.1120561212
1614.14361	0.1094089001
1612.71390	0.1071835607
1611.28419	0.1052745208
1609.85447	0.1035401821
1608.42476	0.1019103080
1606.99505	0.1004021093
1605.56534	0.0990623459
1604.13563	0.0979077965
1602.70592	0.0969209075
1601.27621	0.0960823148
1599.84650	0.0953877345
1598.41679	0.0948342308
1596.98708	0.0944055915
1595.55737	0.0940799788
1594.12765	0.0938453674
1592.69794	0.0937009975
1591.26823	0.0936459824
1589.83852	0.0936744362
1588.40881	0.0937841609
1586.97910	0.0939801708
1585.54939	0.0942629352
1584.11968	0.0946158469
1582.68997	0.0950123817
1581.26026	0.0954402611
1579.83055	0.0959168300
1578.40083	0.0964769572
1576.97112	0.0971374735
1575.54141	0.0978699774
1574.11170	0.0986255854
1572.68199	0.0993908718
1571.25228	0.1002031863
1569.82257	0.1011068895
1568.39286	0.1020966917
1566.96315	0.1031074002
1565.53344	0.1040686518
1564.10373	0.1049726680
1562.67401	0.1059002355
1561.24430	0.1070151851
1559.81459	0.1084899977
1558.38488	0.1102961451
1556.95517	0.1120937467
1555.52546	0.1135647595
1554.09575	0.1146754175
1552.66604	0.1155262738
1551.23633	0.1161782444
1549.80662	0.1166238487
1548.37691	0.1168272644
1546.94719	0.1167625636
1545.51748	0.1164072007
1544.08777	0.1157090366
1542.65806	0.1145968512
1541.22835	0.1131160632
1539.79864	0.1115414426
1538.36893	0.1101623848
1536.93922	0.1090156138
1535.50951	0.1079626977
1534.07980	0.1068777591
1532.65009	0.1057259813
1531.22037	0.1045419797
1529.79066	0.1033646092
1528.36095	0.1021914706
1526.93124	0.1009883732
1525.50153	0.0997268781
1524.07182	0.0984162986
1522.64211	0.0971072689
1521.21240	0.0958655328
1519.78269	0.0947315097
1518.35298	0.0936937034
1516.92327	0.0927008986
1515.49356	0.0916963816
1514.06384	0.0906400234
1512.63413	0.0894928202
1511.20442	0.0881815478
1509.77471	0.0865896195
1508.34500	0.0846620649
1506.91529	0.0826146901
1505.48558	0.0808865800
1504.05587	0.0796998516
1502.62616	0.0789140090
1501.19645	0.0782816038
1499.76674	0.0776330680
1498.33702	0.0769153088
1496.90731	0.0761732608
1495.47760	0.0754831359
1494.04789	0.0748782158
1492.61818	0.0743386447
1491.18847	0.0738376379
1489.75876	0.0733831748
1488.32905	0.0730205998
1486.89934	0.0727924407
1485.46963	0.0727013573
1484.03992	0.0727156773
1482.61020	0.0727978274
1481.18049	0.0729224309
1479.75078	0.0730808154
1478.32107	0.0732825920
1476.89136	0.0735576823
1475.46165	0.0739506260
1474.03194	0.0744858459
1472.60223	0.0751150176
1471.17252	0.0757219568
1469.74281	0.0762063637
1468.31310	0.0765404850
1466.88338	0.0767536610
1465.45367	0.0768934339
1464.02396	0.0769983828
1462.59425	0.0770873129
1461.16454	0.0771676302
1459.73483	0.0772543103
1458.30512	0.0773751512
1456.87541	0.0775420442
1455.44570	0.0777141675
1454.01599	0.0778207704
1452.58628	0.0778168365
1451.15656	0.0776955634
1449.72685	0.0774732903
1448.29714	0.0771827251
1446.86743	0.0768678188
1445.43772	0.0765665099
1444.00801	0.0762913302
1442.57830	0.0760261640
1441.14859	0.0757400841
1439.71888	0.0754054636
1438.28917	0.0750157833
1436.85946	0.0745999292
1435.42974	0.0742150545
1434.00003	0.0739155486
1432.57032	0.0737289414
1431.14061	0.0736608133
1429.71090	0.0737083554
1428.28119	0.0738617852
1426.85148	0.0741003305
1425.42177	0.0743951127
1423.99206	0.0747207105
1422.56235	0.0750658438
1421.13264	0.0754335821
1419.70292	0.0758304521
1418.27321	0.0762500465
1416.84350	0.0766690969
1415.41379	0.0770642236
1413.98408	0.0774281174
1412.55437	0.0777691230
1411.12466	0.0780993998
1409.69495	0.0784245953
1408.26524	0.0787403509
1406.83553	0.0790357813
1405.40582	0.0792973563
1403.97610	0.0795092210
1402.54639	0.0796540454
1401.11668	0.0797169581
1399.68697	0.0796914548
1398.25726	0.0795839578
1396.82755	0.0794120878
1395.39784	0.0791975930
1393.96813	0.0789554268
1392.53842	0.0786855221
1391.10871	0.0783758834
1389.67900	0.0780105442
1388.24928	0.0775822774
1386.81957	0.0771022141
1385.38986	0.0765984729
1383.96015	0.0761017278
1382.53044	0.0756286904
1381.10073	0.0751814917
1379.67102	0.0747576058
1378.24131	0.0743601471
1376.81160	0.0740024373
1375.38189	0.0737031996
1373.95218	0.0734769180
1372.52246	0.0733242109
1371.09275	0.0732293054
1369.66304	0.0731655508
1368.23333	0.0731047094
1366.80362	0.0730255023
1365.37391	0.0729203448
1363.94420	0.0728010088
1362.51449	0.0726958513
1361.08478	0.0726364851
1359.65507	0.0726396069
1358.22536	0.0727007166
1356.79565	0.0728028491
1355.36593	0.0729270503
1353.93622	0.0730580017
1352.50651	0.0731822774
1351.07680	0.0732865483
1349.64709	0.0733591467
1348.21738	0.0733956546
1346.78767	0.0734012648
1345.35796	0.0733881742
1343.92825	0.0733699054
1342.49854	0.0733582303
1341.06883	0.0733656138
1339.63911	0.0734070539
1338.20940	0.0734924972
1336.77969	0.0736183673
1335.34998	0.0737670735
1333.92027	0.0739187077
1332.49056	0.0740657374
1331.06085	0.0742164627
1329.63114	0.0743868500
1328.20143	0.0745862499
1326.77172	0.0748096630
1325.34201	0.0750408322
1323.91229	0.0752633736
1322.48258	0.0754705369
1321.05287	0.0756676644
1319.62316	0.0758665428
1318.19345	0.0760757551
1316.76374	0.0762943253
1315.33403	0.0765114650
1313.90432	0.0767138153
1312.47461	0.0768946111
1311.04490	0.0770575777
1309.61519	0.0772135481
1308.18547	0.0773728341
1306.75576	0.0775389522
1305.32605	0.0777077302
1303.89634	0.0778707862
1302.46663	0.0780201480
1301.03692	0.0781507790
1299.60721	0.0782614872
1298.17750	0.0783548951
1296.74779	0.0784355700
1295.31808	0.0785099715
1293.88837	0.0785839781
1292.45865	0.0786623806
1291.02894	0.0787466839
1289.59923	0.0788344815
1288.16952	0.0789198130
1286.73981	0.0789971501
1285.31010	0.0790659040
1283.88039	0.0791333616
1282.45068	0.0792114511
1281.02097	0.0793094113
1279.59126	0.0794275030
1278.16155	0.0795569718
1276.73183	0.0796882212
1275.30212	0.0798208192
1273.87241	0.0799681470
1272.44270	0.0801504850
1271.01299	0.0803810805
1269.58328	0.0806570277
1268.15357	0.0809630528
1266.72386	0.0812880322
1265.29415	0.0816383660
1263.86444	0.0820378810
1262.43473	0.0825102553
1261.00501	0.0830592066
1259.57530	0.0836611986
1258.14559	0.0842773765
1256.71588	0.0848728195
1255.28617	0.0854263082
1253.85646	0.0859262645
1252.42675	0.0863601565
1250.99704	0.0867085755
1249.56733	0.0869503990
1248.13762	0.0870718807
1246.70791	0.0870743170
1245.27819	0.0869727880
1243.84848	0.0867889225
1242.41877	0.0865424797
1240.98906	0.0862462595
1239.55935	0.0859071165
1238.12964	0.0855299011
1236.69993	0.0851207078
1235.27022	0.0846888050
1233.84051	0.0842457339
1232.41080	0.0838040560
1230.98109	0.0833734274
1229.55137	0.0829572007
1228.12166	0.0825505406
1226.69195	0.0821436420
1225.26224	0.0817288384
1223.83253	0.0813054144
1222.40282	0.0808786899
1220.97311	0.0804523528
1219.54340	0.0800233558
1218.11369	0.0795843005
1216.68398	0.0791327730
1215.25427	0.0786779523
1213.82455	0.0782400668
1212.39484	0.0778402165
1210.96513	0.0774919167
1209.53542	0.0771975964
1208.10571	0.0769524276
1206.67600	0.0767512545
1205.24629	0.0765921399
1203.81658	0.0764780566
1202.38687	0.0764168799
1200.95716	0.0764182061
1199.52745	0.0764897913
1198.09774	0.0766328424
1196.66802	0.0768420845
1195.23831	0.0771100372
1193.80860	0.0774320140
1192.37889	0.0778081715
1190.94918	0.0782374069
1189.51947	0.0787119567
1188.08976	0.0792159885
1186.66005	0.0797324181
1185.23034	0.0802537277
1183.80063	0.0807880163
1182.37092	0.0813565850
1180.94120	0.0819827244
1179.51149	0.0826786906
1178.08178	0.0834388211
1176.65207	0.0842424333
1175.22236	0.0850621983
1173.79265	0.0858746842
1172.36294	0.0866658092
1170.93323	0.0874326080
1169.50352	0.0881814510
1168.07381	0.0889227241
1166.64410	0.0896661282
1165.21438	0.0904176533
1163.78467	0.0911791995
1162.35496	0.0919529647
1160.92525	0.0927444175
1159.49554	0.0935607255
1158.06583	0.0944043696
1156.63612	0.0952690244
1155.20641	0.0961400941
1153.77670	0.0970029458
1152.34699	0.0978512987
1150.91728	0.0986902714
1149.48756	0.0995342806
1148.05785	0.1004004180
1146.62814	0.1013048887
1145.19843	0.1022593379
1143.76872	0.1032701954
1142.33901	0.1043381467
1140.90930	0.1054607034
1139.47959	0.1066363379
1138.04988	0.1078685746
1136.62017	0.1091650277
1135.19046	0.1105323732
1133.76074	0.1119699180
1132.33103	0.1134666279
1130.90132	0.1150048375
1129.47161	0.1165665314
1128.04190	0.1181382388
1126.61219	0.1197122484
1125.18248	0.1212831885
1123.75277	0.1228454709
1122.32306	0.1243925095
1120.89335	0.1259167343
1119.46364	0.1274114549
1118.03392	0.1288715154
1116.60421	0.1302937716
1115.17450	0.1316772997
1113.74479	0.1330233365
1112.31508	0.1343317479
1110.88537	0.1355991960
1109.45566	0.1368173957
1108.02595	0.1379735023
1106.59624	0.1390548199
1105.16653	0.1400505453
1103.73682	0.1409521997
1102.30710	0.1417518705
1100.87739	0.1424432695
1099.44768	0.1430263668
1098.01797	0.1435124427
1096.58826	0.1439228654
1095.15855	0.1442798972
1093.72884	0.1445942968
1092.29913	0.1448591799
1090.86942	0.1450521499
1089.43971	0.1451440156
1088.01000	0.1451086998
1086.58028	0.1449302286
1085.15057	0.1446058899
1083.72086	0.1441447437
1082.29115	0.1435605288
1080.86144	0.1428616345
1079.43173	0.1420467794
1078.00202	0.1411108226
1076.57231	0.1400572658
1075.14260	0.1389063001
1073.71289	0.1376875788
1072.28318	0.1364243031
1070.85346	0.1351207048
1069.42375	0.1337660849
1067.99404	0.1323488653
1066.56433	0.1308671087
1065.13462	0.1293243915
1063.70491	0.1277160197
1062.27520	0.1260238439
1060.84549	0.1242245585
1059.41578	0.1223073229
1057.98607	0.1202820539
1056.55636	0.1181742251
1055.12664	0.1160119548
1053.69693	0.1138188541
1052.26722	0.1116154715
1050.83751	0.1094245538
1049.40780	0.1072722673
1047.97809	0.1051849052
1046.54838	0.1031858176
1045.11867	0.1012927666
1043.68896	0.0995160788
1042.25925	0.0978551954
1040.82954	0.0962964594
1039.39983	0.0948166475
1037.97011	0.0933918953
1036.54040	0.0920074433
1035.11069	0.0906610414
1033.68098	0.0893598795
1032.25127	0.0881134048
1030.82156	0.0869289860
1029.39185	0.0858125761
1027.96214	0.0847710446
1026.53243	0.0838120580
1025.10272	0.0829406828
1023.67301	0.0821568370
1022.24329	0.0814592391
1020.81358	0.0808532760
1019.38387	0.0803559124
1017.95416	0.0799925476
1016.52445	0.0797847956
1015.09474	0.0797399431
1013.66503	0.0798488781
1012.23532	0.0800931752
1010.80561	0.0804569051
1009.37590	0.0809330195
1007.94619	0.0815217644
1006.51647	0.0822223723
1005.08676	0.0830255151
1003.65705	0.0839107484
1002.22734	0.0848525465
1000.79763	0.0858264863
999.36792	0.0868114978
997.93821	0.0877865478
996.50850	0.0887240320
995.07879	0.0895890296
993.64908	0.0903446302
992.21937	0.0909571275
990.78965	0.0913985372
989.35994	0.0916439816
987.93023	0.0916723683
986.50052	0.0914723501
985.07081	0.0910503343
983.64110	0.0904331431
982.21139	0.0896605551
980.78168	0.0887712836
979.35197	0.0877930075
977.92226	0.0867406204
976.49255	0.0856236890
975.06283	0.0844544247
973.63312	0.0832519382
972.20341	0.0820378140
970.77370	0.0808293894
969.34399	0.0796352029
967.91428	0.0784567818
966.48457	0.0772973597
965.05486	0.0761686042
963.62515	0.0750919059
962.19544	0.0740916729
960.76573	0.0731873885
959.33601	0.0723878816
957.90630	0.0716934204
956.47659	0.0710994527
955.04688	0.0706010088
953.61717	0.0701926723
952.18746	0.0698665008
950.75775	0.0696099624
949.32804	0.0694074854
947.89833	0.0692443624
946.46862	0.0691103712
945.03891	0.0690001771
943.60919	0.0689105541
942.17948	0.0688356906
940.74977	0.0687673837
939.32006	0.0686968192
937.89035	0.0686177760
936.46064	0.0685271695
935.03093	0.0684230328
933.60122	0.0683036298
932.17151	0.0681688339
930.74180	0.0680212528
929.31209	0.0678663626
927.88237	0.0677090138
926.45266	0.0675506070
925.02295	0.0673881471
923.59324	0.0672161356
922.16353	0.0670296624
920.73382	0.0668255761
919.30411	0.0666025802
917.87440	0.0663613528
916.44469	0.0661050752
915.01498	0.0658394247
913.58527	0.0655720681
912.15555	0.0653122514
910.72584	0.0650694594
909.29613	0.0648525879
907.86642	0.0646691099
906.43671	0.0645233989
905.00700	0.0644166768
903.57729	0.0643505976
902.14758	0.0643327683
900.71787	0.0643794537
899.28816	0.0645100400
897.85845	0.0647334978
896.42873	0.0650389716
894.99902	0.0653972849
893.56931	0.0657751486
892.13960	0.0661506802
890.70989	0.0665184259
889.28018	0.0668817088
887.85047	0.0672425181
886.42076	0.0675986931
884.99105	0.0679499283
883.56134	0.0683042929
882.13163	0.0686751977
880.70192	0.0690710396
879.27220	0.0694862455
877.84249	0.0699011907
876.41278	0.0702913553
874.98307	0.0706360340
873.55336	0.0709213093
872.12365	0.0711403489
870.69394	0.0712935999
869.26423	0.0713892728
867.83452	0.0714406222
866.40481	0.0714582652
864.97510	0.0714424551
863.54538	0.0713846684
862.11567	0.0712756366
860.68596	0.0711137876
859.25625	0.0709029585
857.82654	0.0706433430
856.39683	0.0703255087
854.96712	0.0699364617
853.53741	0.0694734305
852.10770	0.0689512044
850.67799	0.0683970079
849.24828	0.0678375214
847.81856	0.0672916248
846.38885	0.0667728037
844.95914	0.0662946776
843.52943	0.0658696368
842.09972	0.0654994026
840.67001	0.0651686415
839.24030	0.0648493469
837.81059	0.0645158067
836.38088	0.0641572550
834.95117	0.0637790337
833.52146	0.0633946657
832.09174	0.0630146265
830.66203	0.0626415834
829.23232	0.0622709170
827.80261	0.0618942156
826.37290	0.0615057871
824.94319	0.0611069240
823.51348	0.0607104190
822.08377	0.0603389591
820.65406	0.0600190312
819.22435	0.0597696118
817.79464	0.0595939420
816.36492	0.0594778545
814.93521	0.0593970604
813.50550	0.0593290962
812.07579	0.0592634007
810.64608	0.0592027009
809.21637	0.0591547303
807.78666	0.0591211542
806.35695	0.0590910502
804.92724	0.0590472147
803.49753	0.0589802861
802.06782	0.0588965304
800.63810	0.0588116348
799.20839	0.0587342195
797.77868	0.0586568527
796.34897	0.0585642420
794.91926	0.0584552437
793.48955	0.0583534651
792.05984	0.0582956448
790.63013	0.0583031029
789.20042	0.0583642721
787.77071	0.0584430397
786.34100	0.0585067756
784.91128	0.0585483052
783.48157	0.0585836135
782.05186	0.0586296245
780.62215	0.0586821549
779.19244	0.0587130040
777.76273	0.0586891212
776.33302	0.0585983098
774.90331	0.0584650449
773.47360	0.0583415926
772.04389	0.0582827069
770.61418	0.0583147109
769.18446	0.0584214516
767.75475	0.0585549995
766.32504	0.0586639345
764.89533	0.0587206483
763.46562	0.0587300435
762.03591	0.0587181300
760.60620	0.0587122925
759.17649	0.0587275252
757.74678	0.0587620772
756.31707	0.0588009059
754.88736	0.0588228665
753.45764	0.0588124916
752.02793	0.0587723628
750.59822	0.0587281771
749.16851	0.0587170050
747.73880	0.0587616041
746.30909	0.0588514134
744.87938	0.0589456856
743.44967	0.0589986108
742.01996	0.0589881465
740.59025	0.0589265339
739.16054	0.0588498414
737.73082	0.0587969311
736.30111	0.0587923676
734.87140	0.0588406809
733.44169	0.0589294098
732.01198	0.0590390600
730.58227	0.0591561273
729.15256	0.0592812337
727.72285	0.0594268888
726.29314	0.0596040674
724.86343	0.0598106086
723.43372	0.0600313656
722.00401	0.0602495596
720.57429	0.0604542047
719.14458	0.0606409088
717.71487	0.0608067028
716.28516	0.0609517097
714.85545	0.0610862449
713.42574	0.0612319373
711.99603	0.0614095852
710.56632	0.0616228655
709.13661	0.0618516803
707.70690	0.0620625168
706.27719	0.0622284338
704.84747	0.0623419732
703.41776	0.0624130070
701.98805	0.0624550581
700.55834	0.0624714680
699.12863	0.0624529049
697.69892	0.0623883791
696.26921	0.0622819737
694.83950	0.0621596128
693.40979	0.0620572008
691.98008	0.0619952716
690.55037	0.0619630851
689.12065	0.0619275607
687.69094	0.0618616492
686.26123	0.0617666803
684.83152	0.0616687201
683.40181	0.0615947023
681.97210	0.0615525842
680.54239	0.0615324825
679.11268	0.0615206994
677.68297	0.0615090989
676.25326	0.0614932328
674.82355	0.0614678524
673.39383	0.0614301004
671.96412	0.0613891594
670.53441	0.0613723136
669.10470	0.0614119396
667.67499	0.0615087710
666.24528	0.0616151690
664.81557	0.0616759993
663.38586	0.0616725981
661.95615	0.0616215505
660.52644	0.0615526736
659.09673	0.0614914745
657.66701	0.0614463538
656.23730	0.0614069626
654.80759	0.0613557696
653.37788	0.0612842217
651.94817	0.0612029396
650.51846	0.0611360036
649.08875	0.0611061789
647.65904	0.0611167252
646.22933	0.0611432754
644.79962	0.0611420535
643.36991	0.0610752180
641.94019	0.0609350875
640.51048	0.0607512034
639.08077	0.0605716221
637.65106	0.0604301654
636.22135	0.0603205189
634.79164	0.0601961240
633.36193	0.0599932633
631.93222	0.0596629828
630.50251	0.0591934733
629.07280	0.0586138330
627.64309	0.0579834282
626.21337	0.0573686771
624.78366	0.0568156280
623.35395	0.0563311763
621.92424	0.0558906011
620.49453	0.0554645918
619.06482	0.0550367646
617.63511	0.0545956194
616.20540	0.0541254282
614.77569	0.0536228791
613.34598	0.0531272329
611.91627	0.0527269803
610.48655	0.0525268763
609.05684	0.0525918528
607.62713	0.0529096909
606.19742	0.0533953719
604.76771	0.0539275520
603.33800	0.0543945394
601.90829	0.0547265857
600.47858	0.0549078509
599.04887	0.0549614020
