3997.47168	0.0354192033
3996.04197	0.0354588330
3994.61226	0.0354869515
3993.18255	0.0355028510
3991.75284	0.0355086923
3990.32312	0.0355116688
3988.89341	0.0355185233
3987.46370	0.0355307460
3986.03399	0.0355429389
3984.60428	0.0355490334
3983.17457	0.0355485007
3981.74486	0.0355441161
3980.31515	0.0355337225
3978.88544	0.0355073176
3977.45573	0.0354539454
3976.02602	0.0353772454
3974.59630	0.0353013724
3973.16659	0.0352582447
3971.73688	0.0352655463
3970.30717	0.0353123769
3968.87746	0.0353674740
3967.44775	0.0354017913
3966.01804	0.0354042351
3964.58833	0.0353854746
3963.15862	0.0353646651
3961.72891	0.0353564061
3960.29920	0.0353624448
3958.86948	0.0353721045
3957.43977	0.0353699997
3956.01006	0.0353448652
3954.58035	0.0352976359
3953.15064	0.0352442935
3951.72093	0.0352107473
3950.29122	0.0352207124
3948.86151	0.0352792740
3947.43180	0.0353678390
3946.00209	0.0354522616
3944.57238	0.0355057716
3943.14266	0.0355271772
3941.71295	0.0355405770
3940.28324	0.0355732217
3938.85353	0.0356297009
3937.42382	0.0356858745
3935.99411	0.0357065015
3934.56440	0.0356708951
3933.13469	0.0355866253
3931.70498	0.0354820080
3930.27527	0.0353828892
3928.84556	0.0352982283
3927.41585	0.0352263823
3925.98613	0.0351682454
3924.55642	0.0351302437
3923.12671	0.0351154245
3921.69700	0.0351172201
3920.26729	0.0351236165
3918.83758	0.0351298489
3917.40787	0.0351433232
3915.97816	0.0351778194
3914.54845	0.0352377221
3913.11874	0.0353105254
3911.68903	0.0353688188
3910.25931	0.0353812315
3908.82960	0.0353220925
3907.39989	0.0351829268
3905.97018	0.0349822976
3904.54047	0.0347717777
3903.11076	0.0346267894
3901.68105	0.0346089602
3900.25134	0.0347226784
3898.82163	0.0349119939
3897.39192	0.0351031311
3895.96221	0.0352444910
3894.53249	0.0353179090
3893.10278	0.0353381559
3891.67307	0.0353392214
3890.24336	0.0353502594
3888.81365	0.0353728905
3887.38394	0.0353827775
3885.95423	0.0353538804
3884.52452	0.0352880917
3883.09481	0.0352211595
3881.66510	0.0351978317
3880.23539	0.0352349728
3878.80567	0.0353079438
3877.37596	0.0353680328
3875.94625	0.0353733972
3874.51654	0.0353095159
3873.08683	0.0351962596
3871.65712	0.0350774787
3870.22741	0.0349946991
3868.79770	0.0349589847
3867.36799	0.0349533707
3865.93828	0.0349619277
3864.50857	0.0349868983
3863.07885	0.0350376032
3861.64914	0.0351031311
3860.21943	0.0351430401
3858.78972	0.0351046734
3857.36001	0.0349532887
3855.93030	0.0347134806
3854.50059	0.0345080234
3853.07088	0.0345117524
3851.64117	0.0347707123
3850.21146	0.0351432078
3848.78175	0.0354601815
3847.35203	0.0356345326
3845.92232	0.0356508307
3844.49261	0.0355369821
3843.06290	0.0353542455
3841.63319	0.0351871923
3840.20348	0.0351130925
3838.77377	0.0351576097
3837.34406	0.0352715813
3835.91435	0.0353692137
3834.48464	0.0353970155
3833.05493	0.0353639908
3831.62521	0.0353170112
3830.19550	0.0353012308
3828.76579	0.0353338607
3827.33608	0.0354043171
3825.90637	0.0354891419
3824.47666	0.0355652161
3823.04695	0.0356143862
3821.61724	0.0356259905
3820.18753	0.0356042124
3818.75782	0.0355757251
3817.32811	0.0355796292
3815.89839	0.0356399827
3814.46868	0.0357468873
3813.03897	0.0358633511
3811.60926	0.0359467752
3810.17955	0.0359685123
3808.74984	0.0359237157
3807.32013	0.0358325392
3805.89042	0.0357288159
3804.46071	0.0356413312
3803.03100	0.0355798267
3801.60129	0.0355470963
3800.17157	0.0355565622
3798.74186	0.0356297567
3797.31215	0.0357729457
3795.88244	0.0359636173
3794.45273	0.0361587927
3793.02302	0.0363170728
3791.59331	0.0364156142
3790.16360	0.0364546031
3788.73389	0.0364525765
3787.30418	0.0364351496
3785.87447	0.0364236087
3784.44475	0.0364265665
3783.01504	0.0364405848
3781.58533	0.0364617817
3780.15562	0.0364945829
3778.72591	0.0365481377
3777.29620	0.0366211310
3775.86649	0.0366945602
3774.43678	0.0367429815
3773.00707	0.0367518850
3771.57736	0.0367269814
3770.14765	0.0366931520
3768.71794	0.0366789550
3767.28822	0.0366991237
3765.85851	0.0367461666
3764.42880	0.0367983431
3762.99909	0.0368322656
3761.56938	0.0368361548
3760.13967	0.0368155576
3758.70996	0.0367863700
3757.28025	0.0367534906
3755.85054	0.0366961919
3754.42083	0.0365788862
3752.99112	0.0363848470
3751.56140	0.0361501537
3750.13169	0.0359583609
3748.70198	0.0358843245
3747.27227	0.0359495282
3745.84256	0.0361364260
3744.41285	0.0364146866
3742.98314	0.0367391221
3741.55343	0.0370510034
3740.12372	0.0372937433
3738.69401	0.0374313034
3737.26430	0.0374570638
3735.83458	0.0374046378
3734.40487	0.0373447463
3732.97516	0.0373415016
3731.54545	0.0374046974
3730.11574	0.0374995060
3728.68603	0.0375881568
3727.25632	0.0376547463
3725.82661	0.0377087258
3724.39690	0.0377744026
3722.96719	0.0378705375
3721.53748	0.0379949175
3720.10776	0.0381276384
3718.67805	0.0382459573
3717.24834	0.0383337140
3715.81863	0.0383813865
3714.38892	0.0383913405
3712.95921	0.0383908600
3711.52950	0.0384347215
3710.09979	0.0385716818
3708.67008	0.0387970731
3707.24037	0.0390607268
3705.81066	0.0393153317
3704.38094	0.0395419598
3702.95123	0.0397443064
3701.52152	0.0399343483
3700.09181	0.0401192792
3698.66210	0.0402991176
3697.23239	0.0404686034
3695.80268	0.0406240262
3694.37297	0.0407684185
3692.94326	0.0409185737
3691.51355	0.0411025286
3690.08384	0.0413420759
3688.65412	0.0416250005
3687.22441	0.0419099927
3685.79470	0.0421614535
3684.36499	0.0423676819
3682.93528	0.0425292701
3681.50557	0.0426498465
3680.07586	0.0427439250
3678.64615	0.0428529643
3677.21644	0.0430440865
3675.78673	0.0433744602
3674.35702	0.0438487008
3672.92730	0.0444285385
3671.49759	0.0450805649
3670.06788	0.0457915850
3668.63817	0.0465439670
3667.20846	0.0473064296
3665.77875	0.0480511785
3664.34904	0.0487679802
3662.91933	0.0494535081
3661.48962	0.0501007512
3660.05991	0.0507013090
3658.63020	0.0512596704
3657.20048	0.0517957695
3655.77077	0.0523292609
3654.34106	0.0528647527
3652.91135	0.0534097441
3651.48164	0.0540095642
3650.05193	0.0547531024
3648.62222	0.0557003953
3647.19251	0.0567956232
3645.76280	0.0579127297
3644.33309	0.0589715093
3642.90338	0.0599636622
3641.47366	0.0609125718
3640.04395	0.0618409030
3638.61424	0.0627636015
3637.18453	0.0636825636
3635.75482	0.0645859316
3634.32511	0.0654584691
3632.89540	0.0663101450
3631.46569	0.0672000274
3630.03598	0.0682133883
3628.60627	0.0693753213
3627.17656	0.0705953464
3625.74684	0.0717488080
3624.31713	0.0727866888
3622.88742	0.0737408400
3621.45771	0.0746734217
3620.02800	0.0756333694
3618.59829	0.0766347572
3617.16858	0.0776560679
3615.73887	0.0786628723
3614.30916	0.0796403363
3612.87945	0.0806110501
3611.44974	0.0816253051
3610.02003	0.0827244148
3608.59031	0.0839005709
3607.16060	0.0850970596
3605.73089	0.0862539336
3604.30118	0.0873466060
3602.87147	0.0883809477
3601.44176	0.0893681496
3600.01205	0.0903160721
3598.58234	0.0912398100
3597.15263	0.0921647847
3595.72292	0.0931085125
3594.29321	0.0940622613
3592.86349	0.0950061008
3591.43378	0.0959436297
3590.00407	0.0969141498
3588.57436	0.0979611501
3587.14465	0.0990827978
3585.71494	0.1002192572
3584.28523	0.1013013273
3582.85552	0.1023010761
3581.42581	0.1032357216
3579.99610	0.1041432694
3578.56639	0.1050626338
3577.13667	0.1060179174
3575.70696	0.1070034951
3574.27725	0.1079836413
3572.84754	0.1089174375
3571.41783	0.1097907424
3569.98812	0.1106351539
3568.55841	0.1115152389
3567.12870	0.1124879569
3565.69899	0.1135586724
3564.26928	0.1146789566
3562.83957	0.1157886833
3561.40985	0.1168496907
3559.98014	0.1178519651
3558.55043	0.1188055798
3557.12072	0.1197318956
3555.69101	0.1206524298
3554.26130	0.1215802655
3552.83159	0.1225221679
3551.40188	0.1234880239
3549.97217	0.1244928315
3548.54246	0.1255460978
3547.11275	0.1266379356
3545.68303	0.1277361661
3544.25332	0.1288007200
3542.82361	0.1298010796
3541.39390	0.1307277381
3539.96419	0.1315947175
3538.53448	0.1324330568
3537.10477	0.1332776695
3535.67506	0.1341463476
3534.24535	0.1350323111
3532.81564	0.1359181702
3531.38593	0.1368001550
3529.95621	0.1376947910
3528.52650	0.1386211514
3527.09679	0.1395804435
3525.66708	0.1405541897
3524.23737	0.1415216029
3522.80766	0.1424717605
3521.37795	0.1434001029
3519.94824	0.1443022341
3518.51853	0.1451751590
3517.08882	0.1460217088
3515.65911	0.1468492299
3514.22939	0.1476642489
3512.79968	0.1484731883
3511.36997	0.1492854655
3509.94026	0.1501112580
3508.51055	0.1509522945
3507.08084	0.1518017948
3505.65113	0.1526538730
3504.22142	0.1535129994
3502.79171	0.1543854028
3501.36200	0.1552634835
3499.93229	0.1561249197
3498.50257	0.1569523066
3497.07286	0.1577465534
3495.64315	0.1585187167
3494.21344	0.1592714190
3492.78373	0.1599962413
3491.35402	0.1606911719
3489.92431	0.1613721997
3488.49460	0.1620638818
3487.06489	0.1627791822
3485.63518	0.1635149866
3484.20547	0.1642650962
3482.77575	0.1650275737
3481.34604	0.1657980531
3479.91633	0.1665583998
3478.48662	0.1672843546
3477.05691	0.1679636836
3475.62720	0.1686049551
3474.19749	0.1692277640
3472.76778	0.1698483378
3471.33807	0.1704736501
3469.90836	0.1711059511
3468.47865	0.1717448831
3467.04893	0.1723865420
3465.61922	0.1730244756
3464.18951	0.1736537814
3462.75980	0.1742708385
3461.33009	0.1748706698
3459.90038	0.1754463464
3458.47067	0.1759980619
3457.04096	0.1765353233
3455.61125	0.1770705283
3454.18154	0.1776044816
3452.75183	0.1781264096
3451.32212	0.1786293685
3449.89240	0.1791223437
3448.46269	0.1796246171
3447.03298	0.1801468581
3445.60327	0.1806837469
3444.17356	0.1812230200
3442.74385	0.1817576289
3441.31414	0.1822828501
3439.88443	0.1827874035
3438.45472	0.1832562238
3437.02501	0.1836828440
3435.59530	0.1840798706
3434.16558	0.1844692081
3432.73587	0.1848665476
3431.30616	0.1852726638
3429.87645	0.1856781542
3428.44674	0.1860717237
3427.01703	0.1864459515
3425.58732	0.1868008524
3424.15761	0.1871454418
3422.72790	0.1874938160
3421.29819	0.1878555119
3419.86848	0.1882285327
3418.43876	0.1886029094
3417.00905	0.1889709383
3415.57934	0.1893305480
3414.14963	0.1896779537
3412.71992	0.1900038272
3411.29021	0.1903002113
3409.86050	0.1905722022
3408.43079	0.1908379644
3407.00108	0.1911156625
3405.57137	0.1914075464
3404.14166	0.1917000562
3402.71194	0.1919751763
3401.28223	0.1922228634
3399.85252	0.1924449652
3398.42281	0.1926534176
3396.99310	0.1928640306
3395.56339	0.1930865794
3394.13368	0.1933150291
3392.70397	0.1935264170
3391.27426	0.1936934143
3389.84455	0.1938049048
3388.41484	0.1938775927
3386.98512	0.1939514726
3385.55541	0.1940707117
3384.12570	0.1942636818
3382.69599	0.1945283115
3381.26628	0.1948328316
3379.83657	0.1951302290
3378.40686	0.1953838468
3376.97715	0.1955853254
3375.54744	0.1957562119
3374.11773	0.1959280074
3372.68802	0.1961194873
3371.25830	0.1963248402
3369.82859	0.1965222657
3368.39888	0.1966896504
3366.96917	0.1968183368
3365.53946	0.1969166100
3364.10975	0.1970037669
3362.68004	0.1970999688
3361.25033	0.1972169429
3359.82062	0.1973575652
3358.39091	0.1975222975
3356.96120	0.1977145225
3355.53148	0.1979339272
3354.10177	0.1981662810
3352.67206	0.1983827055
3351.24235	0.1985574663
3349.81264	0.1986878961
3348.38293	0.1987988353
3346.95322	0.1989279389
3345.52351	0.1991013288
3344.09380	0.1993227601
3342.66409	0.1995751113
3341.23438	0.1998302042
3339.80466	0.2000582814
3338.37495	0.2002378404
3336.94524	0.2003654838
3335.51553	0.2004618198
3334.08582	0.2005645037
3332.65611	0.2007136941
3331.22640	0.2009353638
3329.79669	0.2012342960
3328.36698	0.2015920579
3326.93727	0.2019728273
3325.50756	0.2023347467
3324.07784	0.2026486397
3322.64813	0.2029122263
3321.21842	0.2031525075
3319.78871	0.2034096718
3318.35900	0.2037170082
3316.92929	0.2040889263
3315.49958	0.2045211345
3314.06987	0.2049987614
3312.64016	0.2055022120
3311.21045	0.2060091645
3309.78074	0.2064932138
3308.35102	0.2069254518
3306.92131	0.2072785050
3305.49160	0.2075368315
3304.06189	0.2077084780
3302.63218	0.2078300714
3301.20247	0.2079554796
3299.77276	0.2081292570
3298.34305	0.2083612829
3296.91334	0.2086185366
3295.48363	0.2088411897
3294.05392	0.2089718431
3292.62421	0.2089820206
3291.19449	0.2088805884
3289.76478	0.2087050080
3288.33507	0.2084968984
3286.90536	0.2082798928
3285.47565	0.2080499232
3284.04594	0.2077866197
3282.61623	0.2074745595
3281.18652	0.2071167976
3279.75681	0.2067298293
3278.32710	0.2063264251
3276.89739	0.2059006095
3275.46767	0.2054266781
3274.03796	0.2048710287
3272.60825	0.2042073011
3271.17854	0.2034263760
3269.74883	0.2025398463
3268.31912	0.2015751749
3266.88941	0.2005672604
3265.45970	0.1995481551
3264.02999	0.1985410303
3262.60028	0.1975599080
3261.17057	0.1966122985
3259.74085	0.1956966966
3258.31114	0.1948010921
3256.88143	0.1939047426
3255.45172	0.1929931939
3254.02201	0.1920714080
3252.59230	0.1911654770
3251.16259	0.1903056353
3249.73288	0.1895026714
3248.30317	0.1887402534
3246.87346	0.1879870296
3245.44375	0.1872186214
3244.01403	0.1864346564
3242.58432	0.1856588721
3241.15461	0.1849252731
3239.72490	0.1842616647
3238.29519	0.1836740375
3236.86548	0.1831417233
3235.43577	0.1826246977
3234.00606	0.1820821762
3232.57635	0.1814925671
3231.14664	0.1808641404
3229.71693	0.1802284271
3228.28721	0.1796212494
3226.85750	0.1790628731
3225.42779	0.1785510182
3223.99808	0.1780664921
3222.56837	0.1775850356
3221.13866	0.1770894825
3219.70895	0.1765739322
3218.27924	0.1760415137
3216.84953	0.1754989326
3215.41982	0.1749531478
3213.99011	0.1744102985
3212.56039	0.1738775522
3211.13068	0.1733625829
3209.70097	0.1728678495
3208.27126	0.1723857373
3206.84155	0.1718977988
3205.41184	0.1713830978
3203.98213	0.1708313078
3202.55242	0.1702509075
3201.12271	0.1696659923
3199.69300	0.1691025347
3198.26329	0.1685717255
3196.83357	0.1680641174
3195.40386	0.1675574034
3193.97415	0.1670301408
3192.54444	0.1664724499
3191.11473	0.1658841819
3189.68502	0.1652714908
3188.25531	0.1646434963
3186.82560	0.1640145779
3185.39589	0.1634010077
3183.96618	0.1628125161
3182.53647	0.1622429043
3181.10675	0.1616712362
3179.67704	0.1610760689
3178.24733	0.1604500413
3176.81762	0.1598028094
3175.38791	0.1591508687
3173.95820	0.1585056037
3172.52849	0.1578699648
3171.09878	0.1572430283
3169.66907	0.1566236913
3168.23936	0.1560080051
3166.80965	0.1553862691
3165.37993	0.1547464877
3163.95022	0.1540838182
3162.52051	0.1534076333
3161.09080	0.1527407020
3159.66109	0.1521089971
3158.23138	0.1515279710
3156.80167	0.1509944052
3155.37196	0.1504861265
3153.94225	0.1499703526
3152.51254	0.1494185477
3151.08283	0.1488176882
3149.65311	0.1481752396
3148.22340	0.1475138515
3146.79369	0.1468624771
3145.36398	0.1462460011
3143.93427	0.1456786245
3142.50456	0.1451597065
3141.07485	0.1446726620
3139.64514	0.1441916823
3138.21543	0.1436925232
3136.78572	0.1431640685
3135.35601	0.1426129490
3133.92629	0.1420558989
3132.49658	0.1415087283
3131.06687	0.1409786940
3129.63716	0.1404665112
3128.20745	0.1399728358
3126.77774	0.1395026892
3125.34803	0.1390621215
3123.91832	0.1386515647
3122.48861	0.1382601857
3121.05890	0.1378674209
3119.62919	0.1374522746
3118.19948	0.1370035261
3116.76976	0.1365254521
3115.34005	0.1360363811
3113.91034	0.1355577856
3112.48063	0.1351009458
3111.05092	0.1346618831
3109.62121	0.1342271566
3108.19150	0.1337893605
3106.76179	0.1333578676
3105.33208	0.1329542398
3103.90237	0.1325945109
3102.47266	0.1322717369
3101.04294	0.1319564879
3099.61323	0.1316179931
3098.18352	0.1312487274
3096.75381	0.1308726668
3095.32410	0.1305281222
3093.89439	0.1302402467
3092.46468	0.1300031096
3091.03497	0.1297832727
3089.60526	0.1295402944
3088.17555	0.1292468607
3086.74584	0.1288993061
3085.31612	0.1285159886
3083.88641	0.1281255037
3082.45670	0.1277504712
3081.02699	0.1273926795
3079.59728	0.1270301044
3078.16757	0.1266298294
3076.73786	0.1261733174
3075.30815	0.1256752461
3073.87844	0.1251796782
3072.44873	0.1247332171
3071.01902	0.1243520379
3069.58930	0.1240083203
3068.15959	0.1236454695
3066.72988	0.1232134998
3065.30017	0.1226976290
3063.87046	0.1221238598
3062.44075	0.1215382442
3061.01104	0.1209794432
3059.58133	0.1204620823
3058.15162	0.1199795902
3056.72191	0.1195164472
3055.29220	0.1190596595
3053.86248	0.1186007634
3052.43277	0.1181337908
3051.00306	0.1176541522
3049.57335	0.1171624586
3048.14364	0.1166647598
3046.71393	0.1161694527
3045.28422	0.1156795397
3043.85451	0.1151894704
3042.42480	0.1146913916
3040.99509	0.1141838208
3039.56538	0.1136733368
3038.13566	0.1131664813
3036.70595	0.1126587093
3035.27624	0.1121336967
3033.84653	0.1115759462
3032.41682	0.1109856889
3030.98711	0.1103830487
3029.55740	0.1097973138
3028.12769	0.1092514768
3026.69798	0.1087546051
3025.26827	0.1083024815
3023.83856	0.1078847349
3022.40884	0.1074888185
3020.97913	0.1071032584
3019.54942	0.1067198962
3018.11971	0.1063357815
3016.69000	0.1059505865
3015.26029	0.1055613011
3013.83058	0.1051588506
3012.40087	0.1047336832
3010.97116	0.1042845696
3009.54145	0.1038262174
3008.11174	0.1033841148
3006.68202	0.1029843315
3005.25231	0.1026433110
3003.82260	0.1023650989
3002.39289	0.1021443382
3000.96318	0.1019709334
2999.53347	0.1018344760
2998.10376	0.1017261967
2996.67405	0.1016414016
2995.24434	0.1015782356
2993.81463	0.1015364081
2992.38492	0.1015152782
2990.95520	0.1015177965
2989.52549	0.1015539020
2988.09578	0.1016411707
2986.66607	0.1017964780
2985.23636	0.1020238400
2983.80665	0.1023083851
2982.37694	0.1026237682
2980.94723	0.1029459462
2979.51752	0.1032637283
2978.08781	0.1035771519
2976.65810	0.1038883626
2975.22838	0.1041966006
2973.79867	0.1045012772
2972.36896	0.1048100218
2970.93925	0.1051381752
2969.50954	0.1054978967
2968.07983	0.1058816686
2966.65012	0.1062553376
2965.22041	0.1065652966
2963.79070	0.1067601442
2962.36099	0.1068085060
2960.93128	0.1067074537
2959.50157	0.1064754128
2958.07185	0.1061386466
2956.64214	0.1057206020
2955.21243	0.1052402183
2953.78272	0.1047184244
2952.35301	0.1041839644
2950.92330	0.1036719233
2949.49359	0.1032157317
2948.06388	0.1028371900
2946.63417	0.1025436446
2945.20446	0.1023323014
2943.77475	0.1021974310
2942.34503	0.1021341532
2940.91532	0.1021362171
2939.48561	0.1021935642
2938.05590	0.1022913828
2936.62619	0.1024119928
2935.19648	0.1025367305
2933.76677	0.1026455685
2932.33706	0.1027188227
2930.90735	0.1027380079
2929.47764	0.1026894450
2928.04793	0.1025631875
2926.61821	0.1023515314
2925.18850	0.1020475104
2923.75879	0.1016467661
2922.32908	0.1011510938
2920.89937	0.1005684361
2919.46966	0.0999097154
2918.03995	0.0991842449
2916.61024	0.0983978882
2915.18053	0.0975557268
2913.75082	0.0966666788
2912.32111	0.0957472473
2910.89139	0.0948220268
2909.46168	0.0939209387
2908.03197	0.0930725262
2906.60226	0.0922967046
2905.17255	0.0916004106
2903.74284	0.0909801722
2902.31313	0.0904285237
2900.88342	0.0899375230
2899.45371	0.0894979164
2898.02400	0.0890947506
2896.59429	0.0887087882
2895.16457	0.0883253291
2893.73486	0.0879444927
2892.30515	0.0875813067
2890.87544	0.0872567520
2889.44573	0.0869848058
2888.01602	0.0867661014
2886.58631	0.0865937024
2885.15660	0.0864614472
2883.72689	0.0863692239
2882.29718	0.0863214135
2880.86747	0.0863200873
2879.43775	0.0863574445
2878.00804	0.0864105001
2876.57833	0.0864399076
2875.14862	0.0863966644
2873.71891	0.0862360969
2872.28920	0.0859357640
2870.85949	0.0855046883
2869.42978	0.0849806592
2868.00007	0.0844157264
2866.57036	0.0838589072
2865.14065	0.0833455101
2863.71093	0.0828946903
2862.28122	0.0825112909
2860.85151	0.0821873993
2859.42180	0.0819042921
2857.99209	0.0816369578
2856.56238	0.0813582018
2855.13267	0.0810438469
2853.70296	0.0806722045
2852.27325	0.0802225918
2850.84354	0.0796770900
2849.41383	0.0790275857
2847.98411	0.0782871246
2846.55440	0.0774946660
2845.12469	0.0767070875
2843.69498	0.0759804696
2842.26527	0.0753495172
2840.83556	0.0748191997
2839.40585	0.0743714869
2837.97614	0.0739794150
2836.54643	0.0736198723
2835.11672	0.0732779354
2833.68701	0.0729452744
2832.25729	0.0726185217
2830.82758	0.0722994804
2829.39787	0.0719948784
2827.96816	0.0717131123
2826.53845	0.0714581683
2825.10874	0.0712266788
2823.67903	0.0710100085
2822.24932	0.0707985014
2820.81961	0.0705865473
2819.38990	0.0703734457
2817.96019	0.0701628849
2816.53047	0.0699603632
2815.10076	0.0697695166
2813.67105	0.0695883259
2812.24134	0.0694081262
2810.81163	0.0692163110
2809.38192	0.0690031797
2807.95221	0.0687684491
2806.52250	0.0685241073
2805.09279	0.0682892054
2803.66308	0.0680808648
2802.23337	0.0679050088
2800.80366	0.0677529424
2799.37394	0.0676068887
2797.94423	0.0674512684
2796.51452	0.0672811717
2795.08481	0.0671034604
2793.65510	0.0669267923
2792.22539	0.0667518228
2790.79568	0.0665677860
2789.36597	0.0663608387
2787.93626	0.0661256015
2786.50655	0.0658715367
2785.07684	0.0656188279
2783.64712	0.0653895512
2782.21741	0.0651977882
2780.78770	0.0650453418
2779.35799	0.0649207905
2777.92828	0.0648028180
2776.49857	0.0646674931
2775.06886	0.0644980222
2773.63915	0.0642918870
2772.20944	0.0640614182
2770.77973	0.0638252646
2769.35002	0.0635980740
2767.92030	0.0633842722
2766.49059	0.0631800666
2765.06088	0.0629800558
2763.63117	0.0627829507
2762.20146	0.0625923052
2760.77175	0.0624126494
2759.34204	0.0622468069
2757.91233	0.0620948002
2756.48262	0.0619564578
2755.05291	0.0618323386
2753.62320	0.0617216788
2752.19348	0.0616172552
2750.76377	0.0615036115
2749.33406	0.0613616705
2747.90435	0.0611795746
2746.47464	0.0609598979
2745.04493	0.0607204810
2743.61522	0.0604847036
2742.18551	0.0602702871
2740.75580	0.0600808859
2739.32609	0.0599058606
2737.89638	0.0597281456
2736.46666	0.0595344976
2735.03695	0.0593244694
2733.60724	0.0591127910
2732.17753	0.0589209870
2730.74782	0.0587644503
2729.31811	0.0586414151
2727.88840	0.0585313886
2726.45869	0.0584067330
2725.02898	0.0582472719
2723.59927	0.0580506735
2722.16956	0.0578297079
2720.73984	0.0576029159
2719.31013	0.0573838018
2717.88042	0.0571771711
2716.45071	0.0569821782
2715.02100	0.0567970984
2713.59129	0.0566202365
2712.16158	0.0564496964
2710.73187	0.0562838502
2709.30216	0.0561219826
2707.87245	0.0559657700
2706.44274	0.0558163263
2705.01302	0.0556703210
2703.58331	0.0555190369
2702.15360	0.0553549267
2700.72389	0.0551787093
2699.29418	0.0550011545
2697.86447	0.0548358858
2696.43476	0.0546895936
2695.00505	0.0545583144
2693.57534	0.0544316545
2692.14563	0.0543014519
2690.71592	0.0541671552
2689.28620	0.0540360622
2687.85649	0.0539184660
2686.42678	0.0538228452
2684.99707	0.0537506826
2683.56736	0.0536953136
2682.13765	0.0536419451
2680.70794	0.0535737090
2679.27823	0.0534780174
2677.84852	0.0533498563
2676.41881	0.0531922393
2674.98910	0.0530133583
2673.55938	0.0528223887
2672.12967	0.0526285246
2670.69996	0.0524375513
2669.27025	0.0522516817
2667.84054	0.0520709679
2666.41083	0.0518956706
2664.98112	0.0517293364
2663.55141	0.0515770577
2662.12170	0.0514418818
2660.69199	0.0513215177
2659.26228	0.0512097478
2657.83256	0.0511002205
2656.40285	0.0509902537
2654.97314	0.0508819446
2653.54343	0.0507786982
2652.11372	0.0506814979
2650.68401	0.0505882725
2649.25430	0.0504954197
2647.82459	0.0504015647
2646.39488	0.0503099710
2644.96517	0.0502249636
2643.53546	0.0501474105
2642.10575	0.0500711501
2640.67603	0.0499858707
2639.24632	0.0498848110
2637.81661	0.0497700721
2636.38690	0.0496504866
2634.95719	0.0495345630
2633.52748	0.0494248793
2632.09777	0.0493181497
2630.66806	0.0492111854
2629.23835	0.0491050892
2627.80864	0.0490044355
2626.37893	0.0489125550
2624.94921	0.0488283150
2623.51950	0.0487485752
2622.08979	0.0486703590
2620.66008	0.0485939533
2619.23037	0.0485203937
2617.80066	0.0484486148
2616.37095	0.0483751111
2614.94124	0.0482974239
2613.51153	0.0482173823
2612.08182	0.0481414013
2610.65211	0.0480750613
2609.22239	0.0480165407
2607.79268	0.0479559153
2606.36297	0.0478809625
2604.93326	0.0477863736
2603.50355	0.0476787724
2602.07384	0.0475735404
2600.64413	0.0474868156
2599.21442	0.0474273898
2597.78471	0.0473937541
2596.35500	0.0473756529
2594.92529	0.0473593436
2593.49557	0.0473330431
2592.06586	0.0472913347
2590.63615	0.0472364090
2589.20644	0.0471764691
2587.77673	0.0471201763
2586.34702	0.0470721945
2584.91731	0.0470318086
2583.48760	0.0469961278
2582.05789	0.0469635613
2580.62818	0.0469356142
2579.19847	0.0469135530
2577.76875	0.0468961336
2576.33904	0.0468794666
2574.90933	0.0468604639
2573.47962	0.0468389243
2572.04991	0.0468180217
2570.62020	0.0468009524
2569.19049	0.0467889868
2567.76078	0.0467808582
2566.33107	0.0467735641
2564.90136	0.0467633307
2563.47165	0.0467461459
2562.04193	0.0467191637
2560.61222	0.0466821529
2559.18251	0.0466401614
2557.75280	0.0466022938
2556.32309	0.0465780571
2554.89338	0.0465723500
2553.46367	0.0465830415
2552.03396	0.0466022342
2550.60425	0.0466218591
2549.17454	0.0466386639
2547.74483	0.0466539934
2546.31511	0.0466719493
2544.88540	0.0466938578
2543.45569	0.0467174947
2542.02598	0.0467379317
2540.59627	0.0467514805
2539.16656	0.0467580818
2537.73685	0.0467618890
2536.30714	0.0467692688
2534.87743	0.0467874035
2533.44772	0.0468206145
2532.01801	0.0468682796
2530.58829	0.0469235033
2529.15858	0.0469761379
2527.72887	0.0470171832
2526.29916	0.0470437221
2524.86945	0.0470587239
2523.43974	0.0470674634
2522.01003	0.0470726304
2520.58032	0.0470732339
2519.15061	0.0470681004
2517.72090	0.0470595881
2516.29119	0.0470545106
2514.86147	0.0470608883
2513.43176	0.0470838808
2512.00205	0.0471225977
2510.57234	0.0471717082
2509.14263	0.0472235382
2507.71292	0.0472710431
2506.28321	0.0473100655
2504.85350	0.0473412126
2503.42379	0.0473691598
2501.99408	0.0473999605
2500.56437	0.0474365130
2499.13465	0.0474755540
2497.70494	0.0475099459
2496.27523	0.0475338884
2494.84552	0.0475476906
2493.41581	0.0475588702
2491.98610	0.0475768633
2490.55639	0.0476072766
2489.12668	0.0476487875
2487.69697	0.0476961359
2486.26726	0.0477435514
2484.83755	0.0477889143
2483.40784	0.0478327274
2481.97812	0.0478753559
2480.54841	0.0479159951
2479.11870	0.0479534268
2477.68899	0.0479883216
2476.25928	0.0480245203
2474.82957	0.0480659530
2473.39986	0.0481130891
2471.97015	0.0481601991
2470.54044	0.0481989272
2469.11073	0.0482246429
2467.68102	0.0482401475
2466.25130	0.0482552461
2464.82159	0.0482794307
2463.39188	0.0483158827
2461.96217	0.0483595729
2460.53246	0.0484004319
2459.10275	0.0484285876
2457.67304	0.0484380797
2456.24333	0.0484289080
2454.81362	0.0484068841
2453.38391	0.0483823456
2451.95420	0.0483660847
2450.52448	0.0483653620
2449.09477	0.0483792201
2447.66506	0.0483994484
2446.23535	0.0484150164
2444.80564	0.0484183729
2443.37593	0.0484090261
2441.94622	0.0483932830
2440.51651	0.0483807251
2439.08680	0.0483800583
2437.65709	0.0483951084
2436.22738	0.0484231189
2434.79766	0.0484551564
2433.36795	0.0484806821
2431.93824	0.0484931581
2430.50853	0.0484920591
2429.07882	0.0484821610
2427.64911	0.0484684110
2426.21940	0.0484544635
2424.78969	0.0484421626
2423.35998	0.0484344922
2421.93027	0.0484345220
2420.50056	0.0484432913
2419.07084	0.0484577604
2417.64113	0.0484733917
2416.21142	0.0484868176
2414.78171	0.0484979637
2413.35200	0.0485075153
2411.92229	0.0485137366
2410.49258	0.0485128984
2409.06287	0.0485028252
2407.63316	0.0484865010
2406.20345	0.0484704375
2404.77374	0.0484598465
2403.34402	0.0484534502
2401.91431	0.0484436080
2400.48460	0.0484222509
2399.05489	0.0483882204
2397.62518	0.0483499393
2396.19547	0.0483206585
2394.76576	0.0483097807
2393.33605	0.0483157113
2391.90634	0.0483272262
2390.47663	0.0483298004
2389.04692	0.0483154804
2387.61720	0.0482845791
2386.18749	0.0482421704
2384.75778	0.0481919572
2383.32807	0.0481330119
2381.89836	0.0480611809
2380.46865	0.0479723923
2379.03894	0.0478625819
2377.60923	0.0477256663
2376.17952	0.0475534126
2374.74981	0.0473396257
2373.32010	0.0470858999
2371.89038	0.0468045548
2370.46067	0.0465133674
2369.03096	0.0462253392
2367.60125	0.0459426828
2366.17154	0.0456593186
2364.74183	0.0453719720
2363.31212	0.0450922810
2361.88241	0.0448514894
2360.45270	0.0446907580
2359.02299	0.0446421877
2357.59328	0.0447153188
2356.16356	0.0448951498
2354.73385	0.0451496653
2353.30414	0.0454368368
2351.87443	0.0457137562
2350.44472	0.0459405556
2349.01501	0.0460814834
2347.58530	0.0461061820
2346.15559	0.0460000336
2344.72588	0.0457831286
2343.29617	0.0455242470
2341.86646	0.0453150198
2340.43674	0.0452109315
2339.00703	0.0451981798
2337.57732	0.0452262461
2336.14761	0.0452551730
2334.71790	0.0452745073
2333.28819	0.0452924930
2331.85848	0.0453172028
2330.42877	0.0453472584
2328.99906	0.0453746729
2327.56935	0.0453921743
2326.13964	0.0453984104
2324.70993	0.0453979783
2323.28021	0.0454003364
2321.85050	0.0454168320
2320.42079	0.0454553440
2318.99108	0.0455157086
2317.56137	0.0455891304
2316.13166	0.0456625409
2314.70195	0.0457251444
2313.27224	0.0457718819
2311.84253	0.0458024032
2310.41282	0.0458197184
2308.98311	0.0458285511
2307.55339	0.0458350815
2306.12368	0.0458460115
2304.69397	0.0458646826
2303.26426	0.0458893664
2301.83455	0.0459126160
2300.40484	0.0459256507
2298.97513	0.0459237508
2297.54542	0.0459098518
2296.11571	0.0458932817
2294.68600	0.0458851382
2293.25629	0.0458908081
2291.82657	0.0459070615
2290.39686	0.0459242091
2288.96715	0.0459317788
2287.53744	0.0459237210
2286.10773	0.0458992645
2284.67802	0.0458604544
2283.24831	0.0458105728
2281.81860	0.0457547680
2280.38889	0.0457011014
2278.95918	0.0456581116
2277.52947	0.0456293263
2276.09975	0.0456100069
2274.67004	0.0455895923
2273.24033	0.0455585122
2271.81062	0.0455138125
2270.38091	0.0454582758
2268.95120	0.0453972630
2267.52149	0.0453348458
2266.09178	0.0452739634
2264.66207	0.0452172533
2263.23236	0.0451677330
2261.80265	0.0451274924
2260.37293	0.0450963601
2258.94322	0.0450715758
2257.51351	0.0450494662
2256.08380	0.0450270958
2254.65409	0.0450038984
2253.22438	0.0449810140
2251.79467	0.0449597090
2250.36496	0.0449392125
2248.93525	0.0449180268
2247.50554	0.0448967554
2246.07583	0.0448788144
2244.64611	0.0448680222
2243.21640	0.0448629707
2241.78669	0.0448554233
2240.35698	0.0448354185
2238.92727	0.0447984226
2237.49756	0.0447503254
2236.06785	0.0447028093
2234.63814	0.0446651094
2233.20843	0.0446372814
2231.77872	0.0446110591
2230.34901	0.0445764661
2228.91929	0.0445295423
2227.48958	0.0444738753
2226.05987	0.0444172695
2224.63016	0.0443651155
2223.20045	0.0443163775
2221.77074	0.0442658141
2220.34103	0.0442094915
2218.91132	0.0441501997
2217.48161	0.0440972485
2216.05190	0.0440604016
2214.62219	0.0440435559
2213.19247	0.0440426394
2211.76276	0.0440475941
2210.33305	0.0440478548
2208.90334	0.0440358482
2207.47363	0.0440080315
2206.04392	0.0439649783
2204.61421	0.0439103879
2203.18450	0.0438509360
2201.75479	0.0437942967
2200.32508	0.0437460542
2198.89537	0.0437075496
2197.46565	0.0436750278
2196.03594	0.0436425135
2194.60623	0.0436048768
2193.17652	0.0435613468
2191.74681	0.0435153916
2190.31710	0.0434724130
2188.88739	0.0434364229
2187.45768	0.0434076153
2186.02797	0.0433825850
2184.59826	0.0433564112
2183.16855	0.0433243774
2181.73883	0.0432839654
2180.30912	0.0432351790
2178.87941	0.0431799628
2177.44970	0.0431227535
2176.01999	0.0430691279
2174.59028	0.0430236198
2173.16057	0.0429876670
2171.73086	0.0429581180
2170.30115	0.0429283977
2168.87144	0.0428924784
2167.44173	0.0428495370
2166.01202	0.0428045392
2164.58230	0.0427660346
2163.15259	0.0427403562
2161.72288	0.0427281596
2160.29317	0.0427227318
2158.86346	0.0427117348
2157.43375	0.0426831767
2156.00404	0.0426312573
2154.57433	0.0425607860
2153.14462	0.0424857028
2151.71491	0.0424204804
2150.28520	0.0423706509
2148.85548	0.0423310697
2147.42577	0.0422919765
2145.99606	0.0422488637
2144.56635	0.0422055833
2143.13664	0.0421687849
2141.70693	0.0421386063
2140.27722	0.0421074592
2138.84751	0.0420659035
2137.41780	0.0420117229
2135.98809	0.0419518724
2134.55838	0.0418970510
2133.12866	0.0418547168
2131.69895	0.0418255590
2130.26924	0.0418052636
2128.83953	0.0417872816
2127.40982	0.0417633690
2125.98011	0.0417260937
2124.55040	0.0416711010
2123.12069	0.0416013561
2121.69098	0.0415270366
2120.26127	0.0414609313
2118.83156	0.0414120927
2117.40184	0.0413824506
2115.97213	0.0413675010
2114.54242	0.0413590744
2113.11271	0.0413482264
2111.68300	0.0413267575
2110.25329	0.0412892662
2108.82358	0.0412358642
2107.39387	0.0411732458
2105.96416	0.0411130562
2104.53445	0.0410661623
2103.10474	0.0410378240
2101.67502	0.0410252772
2100.24531	0.0410200432
2098.81560	0.0410112254
2097.38589	0.0409904271
2095.95618	0.0409535319
2094.52647	0.0409019068
2093.09676	0.0408413857
2091.66705	0.0407799631
2090.23734	0.0407250300
2088.80763	0.0406806506
2087.37792	0.0406462848
2085.94820	0.0406188555
2084.51849	0.0405951217
2083.08878	0.0405730382
2081.65907	0.0405505560
2080.22936	0.0405246094
2078.79965	0.0404914208
2077.36994	0.0404502489
2075.94023	0.0404066630
2074.51052	0.0403704420
2073.08081	0.0403488837
2071.65110	0.0403394252
2070.22138	0.0403288566
2068.79167	0.0403007939
2067.36196	0.0402465202
2065.93225	0.0401701890
2064.50254	0.0400876515
2063.07283	0.0400168262
2061.64312	0.0399680100
2060.21341	0.0399400815
2058.78370	0.0399226584
2057.35399	0.0399046391
2055.92428	0.0398801789
2054.49456	0.0398518890
2053.06485	0.0398260690
2051.63514	0.0398080237
2050.20543	0.0397974998
2048.77572	0.0397898965
2047.34601	0.0397772416
2045.91630	0.0397513434
2044.48659	0.0397066660
2043.05688	0.0396440141
2041.62717	0.0395721570
2040.19746	0.0395053849
2038.76774	0.0394555740
2037.33803	0.0394256972
2035.90832	0.0394084044
2034.47861	0.0393914282
2033.04890	0.0393646173
2031.61919	0.0393250808
2030.18948	0.0392763950
2028.75977	0.0392252803
2027.33006	0.0391779691
2025.90035	0.0391368903
2024.47064	0.0391006358
2023.04092	0.0390659682
2021.61121	0.0390315577
2020.18150	0.0390000641
2018.75179	0.0389763340
2017.32208	0.0389622338
2015.89237	0.0389543325
2014.46266	0.0389442518
2013.03295	0.0389246047
2011.60324	0.0388944782
2010.17353	0.0388617255
2008.74382	0.0388391353
2007.31411	0.0388368703
2005.88439	0.0388555527
2004.45468	0.0388858430
2003.02497	0.0389146656
2001.59526	0.0389333256
2000.16555	0.0389406867
1998.73584	0.0389395244
1997.30613	0.0389315113
1995.87642	0.0389153734
1994.44671	0.0388910808
1993.01700	0.0388631672
1991.58729	0.0388399847
1990.15757	0.0388290845
1988.72786	0.0388319157
1987.29815	0.0388433821
1985.86844	0.0388558917
1984.43873	0.0388639048
1983.00902	0.0388672166
1981.57931	0.0388711505
1980.14960	0.0388822779
1978.71989	0.0389037095
1977.29018	0.0389325321
1975.86047	0.0389616676
1974.43075	0.0389837548
1973.00104	0.0389936939
1971.57133	0.0389898159
1970.14162	0.0389750898
1968.71191	0.0389588922
1967.28220	0.0389543325
1965.85249	0.0389710665
1964.42278	0.0390079394
1962.99307	0.0390538722
1961.56336	0.0390959308
1960.13365	0.0391277969
1958.70393	0.0391513109
1957.27422	0.0391720459
1955.84451	0.0391953327
1954.41480	0.0392244607
1952.98509	0.0392591953
1951.55538	0.0392936803
1950.12567	0.0393165499
1948.69596	0.0393158719
1947.26625	0.0392879024
1945.83654	0.0392421670
1944.40683	0.0391992144
1942.97711	0.0391821600
1941.54740	0.0392060168
1940.11769	0.0392718054
1938.68798	0.0393657200
1937.25827	0.0394660346
1935.82856	0.0395519398
1934.39885	0.0396129899
1932.96914	0.0396516435
1931.53943	0.0396788716
1930.10972	0.0397052206
1928.68001	0.0397356004
1927.25029	0.0397690721
1925.82058	0.0398021787
1924.39087	0.0398305245
1922.96116	0.0398503542
1921.53145	0.0398625582
1920.10174	0.0398747027
1918.67203	0.0398976840
1917.24232	0.0399374142
1915.81261	0.0399901755
1914.38290	0.0400475413
1912.95319	0.0401043445
1911.52347	0.0401628315
1910.09376	0.0402286574
1908.66405	0.0403052233
1907.23434	0.0403906144
1905.80463	0.0404777825
1904.37492	0.0405577756
1902.94521	0.0406241119
1901.51550	0.0406773537
1900.08579	0.0407262817
1898.65608	0.0407821499
1897.22637	0.0408503711
1895.79665	0.0409255140
1894.36694	0.0409966856
1892.93723	0.0410569459
1891.50752	0.0411082469
1890.07781	0.0411575064
1888.64810	0.0412099622
1887.21839	0.0412660912
1885.78868	0.0413231999
1884.35897	0.0413794592
1882.92926	0.0414368100
1881.49955	0.0415006615
1880.06983	0.0415771678
1878.64012	0.0416680798
1877.21041	0.0417663045
1875.78070	0.0418575108
1874.35099	0.0419265553
1872.92128	0.0419651605
1871.49157	0.0419753976
1870.06186	0.0419730023
1868.63215	0.0419854894
1867.20244	0.0420417227
1865.77273	0.0421530120
1864.34301	0.0423052423
1862.91330	0.0424691774
1861.48359	0.0426188633
1860.05388	0.0427426398
1858.62417	0.0428423360
1857.19446	0.0429246537
1855.76475	0.0429939255
1854.33504	0.0430540927
1852.90533	0.0431125760
1851.47562	0.0431769602
1850.04591	0.0432460457
1848.61619	0.0433085039
1847.18648	0.0433541238
1845.75677	0.0433876775
1844.32706	0.0434305593
1842.89735	0.0435045175
1841.46764	0.0436144918
1840.03793	0.0437514335
1838.60822	0.0439040884
1837.17851	0.0440629236
1835.74880	0.0442176610
1834.31909	0.0443572029
1832.88938	0.0444751643
1831.45966	0.0445753746
1830.02995	0.0446708761
1828.60024	0.0447764955
1827.17053	0.0449018925
1825.74082	0.0450489186
1824.31111	0.0452120230
1822.88140	0.0453801341
1821.45169	0.0455409475
1820.02198	0.0456860065
1818.59227	0.0458138213
1817.16256	0.0459278934
1815.73284	0.0460333899
1814.30313	0.0461370423
1812.87342	0.0462482609
1811.44371	0.0463765897
1810.01400	0.0465257019
1808.58429	0.0466900803
1807.15458	0.0468599461
1805.72487	0.0470275991
1804.29516	0.0471890792
1802.86545	0.0473439284
1801.43574	0.0474956520
1800.00602	0.0476521663
1798.57631	0.0478179865
1797.14660	0.0479849093
1795.71689	0.0481333621
1794.28718	0.0482505895
1792.85747	0.0483524539
1791.42776	0.0484812036
1789.99805	0.0486695208
1788.56834	0.0489116572
1787.13863	0.0491734669
1785.70892	0.0494210795
1784.27920	0.0496381819
1782.84949	0.0498255789
1781.41978	0.0499957725
1779.99007	0.0501647554
1778.56036	0.0503436327
1777.13065	0.0505303703
1775.70094	0.0507116653
1774.27123	0.0508771725
1772.84152	0.0510408804
1771.41181	0.0512421355
1769.98210	0.0515124388
1768.55238	0.0518416762
1767.12267	0.0521927103
1765.69296	0.0525356121
1764.26325	0.0528627336
1762.83354	0.0531825535
1761.40383	0.0535121858
1759.97412	0.0538729243
1758.54441	0.0542841144
1757.11470	0.0547506362
1755.68499	0.0552555770
1754.25528	0.0557712056
1752.82556	0.0562791638
1751.39585	0.0567839704
1749.96614	0.0573060215
1748.53643	0.0578590743
1747.10672	0.0584402569
1745.67701	0.0590406321
1744.24730	0.0596553199
1742.81759	0.0602757894
1741.38788	0.0608830564
1739.95817	0.0614573881
1738.52846	0.0619977489
1737.09874	0.0625304803
1735.66903	0.0631004348
1734.23932	0.0637509376
1732.80961	0.0645014197
1731.37990	0.0653366521
1729.95019	0.0662242994
1728.52048	0.0671406239
1727.09077	0.0680777505
1725.66106	0.0690370798
1724.23135	0.0700194240
1722.80164	0.0710249469
1721.37192	0.0720680580
1719.94221	0.0732012689
1718.51250	0.0745095685
1717.08279	0.0760338157
1715.65308	0.0776779503
1714.22337	0.0792693943
1712.79366	0.0807226375
1711.36395	0.0820770934
1709.93424	0.0834226087
1708.50453	0.0848345160
1707.07482	0.0863583609
1705.64510	0.0880325213
1704.21539	0.0899270847
1702.78568	0.0921653658
1701.35597	0.0948923603
1699.92626	0.0981674865
1698.49655	0.1018260643
1697.06684	0.1054961830
1695.63713	0.1088433340
1694.20742	0.1117593944
1692.77771	0.1143127307
1691.34800	0.1166282892
1689.91828	0.1188400909
1688.48857	0.1211098731
1687.05886	0.1236465722
1685.62915	0.1266331226
1684.19944	0.1300132722
1682.76973	0.1334038526
1681.34002	0.1364323050
1679.91031	0.1390619129
1678.48060	0.1414937377
1677.05089	0.1439394802
1675.62118	0.1465101987
1674.19147	0.1492227465
1672.76175	0.1520698369
1671.33204	0.1550577581
1669.90233	0.1581569463
1668.47262	0.1612593830
1667.04291	0.1642509699
1665.61320	0.1671128869
1664.18349	0.1698994339
1662.75378	0.1726102382
1661.32407	0.1751084328
1659.89436	0.1771926284
1658.46465	0.1787184626
1657.03493	0.1796071082
1655.60522	0.1797599196
1654.17551	0.1790527850
1652.74580	0.1775271446
1651.31609	0.1755126119
1649.88638	0.1733406335
1648.45667	0.1710841507
1647.02696	0.1687246263
1645.59725	0.1663849950
1644.16754	0.1642903835
1642.73783	0.1625440121
1641.30811	0.1610302776
1639.87840	0.1594934016
1638.44869	0.1576632261
1637.01898	0.1554033756
1635.58927	0.1528549641
1634.15956	0.1503454298
1632.72985	0.1480542570
1631.30014	0.1458743513
1629.87043	0.1435510665
1628.44072	0.1408261508
1627.01101	0.1375203729
1625.58129	0.1336207390
1624.15158	0.1293235123
1622.72187	0.1249152645
1621.29216	0.1205573976
1619.86245	0.1162036806
1618.43274	0.1117363572
1617.00303	0.1072022840
1615.57332	0.1028998792
1614.14361	0.0991654769
1612.71390	0.0960913897
1611.28419	0.0935148448
1609.85447	0.0912153795
1608.42476	0.0890799090
1606.99505	0.0871290788
1605.56534	0.0854307786
1604.13563	0.0840082988
1602.70592	0.0828269571
1601.27621	0.0818426237
1599.84650	0.0810336471
1598.41679	0.0803906098
1596.98708	0.0798980370
1595.55737	0.0795381963
1594.12765	0.0793043151
1592.69794	0.0791989639
1591.26823	0.0792205855
1589.83852	0.0793603137
1588.40881	0.0796142146
1586.97910	0.0799879059
1585.54939	0.0804795250
1584.11968	0.0810641870
1582.68997	0.0817027241
1581.26026	0.0823734552
1579.83055	0.0830937102
1578.40083	0.0839090198
1576.97112	0.0848520100
1575.54141	0.0859023854
1574.11170	0.0870050788
1572.68199	0.0881318226
1571.25228	0.0893071592
1569.82257	0.0905680135
1568.39286	0.0919050425
1566.96315	0.0932501182
1565.53344	0.0945329145
1564.10373	0.0957482755
1562.67401	0.0969839469
1561.24430	0.0984161720
1559.81459	0.1002374515
1558.38488	0.1024303436
1556.95517	0.1046345904
1555.52546	0.1064915210
1554.09575	0.1079417914
1552.66604	0.1090762690
1551.23633	0.1099516675
1549.80662	0.1105576828
1548.37691	0.1108606681
1546.94719	0.1108380482
1545.51748	0.1104638278
1544.08777	0.1096625030
1542.65806	0.1083288565
1541.22835	0.1065095514
1539.79864	0.1045563072
1538.36893	0.1028458178
1536.93922	0.1014264673
1535.50951	0.1001151949
1534.07980	0.0987439454
1532.65009	0.0972669572
1531.22037	0.0957355350
1529.79066	0.0942109674
1528.36095	0.0927016363
1526.93124	0.0911664292
1525.50153	0.0895618871
1524.07182	0.0878826529
1522.64211	0.0861752927
1521.21240	0.0845183209
1519.78269	0.0829763785
1518.35298	0.0815571174
1516.92327	0.0802107304
1515.49356	0.0788696781
1514.06384	0.0774797201
1512.63413	0.0759830549
1511.20442	0.0742687657
1509.77471	0.0721585229
1508.34500	0.0695531443
1506.91529	0.0667403862
1505.48558	0.0643480495
1504.05587	0.0627166405
1502.62616	0.0616660640
1501.19645	0.0608502403
1499.76674	0.0600255094
1498.33702	0.0591135323
1496.90731	0.0581781007
1495.47760	0.0573304221
1494.04789	0.0566188507
1492.61818	0.0560128279
1491.18847	0.0554668866
1489.75876	0.0549794696
1488.32905	0.0545980297
1486.89934	0.0543690994
1485.46963	0.0542944409
1484.03992	0.0543404967
1482.61020	0.0544748195
1481.18049	0.0546838082
1479.75078	0.0549685434
1478.32107	0.0553352237
1476.89136	0.0557940453
1475.46165	0.0563614741
1474.03194	0.0570442826
1472.60223	0.0578011423
1471.17252	0.0585372858
1469.74281	0.0591632761
1468.31310	0.0596458465
1466.88338	0.0600044057
1465.45367	0.0602851585
1464.02396	0.0605358221
1462.59425	0.0607855916
1461.16454	0.0610389300
1459.73483	0.0612827912
1458.30512	0.0614924282
1456.87541	0.0616368577
1455.44570	0.0616961978
1454.01599	0.0616717339
1452.58628	0.0615710206
1451.15656	0.0613923222
1449.72685	0.0611292720
1448.29714	0.0607896112
1446.86743	0.0604069903
1445.43772	0.0600277670
1444.00801	0.0596786626
1442.57830	0.0593475252
1441.14859	0.0589936003
1439.71888	0.0585717075
1438.28917	0.0580664463
1436.85946	0.0575202815
1435.42974	0.0570255108
1434.00003	0.0566673055
1432.57032	0.0564769059
1431.14061	0.0564402044
1429.71090	0.0565296225
1428.28119	0.0567216352
1426.85148	0.0569964647
1425.42177	0.0573339052
1423.99206	0.0577161647
1422.56235	0.0581338555
1421.13264	0.0585890077
1419.70292	0.0590886772
1418.27321	0.0596308820
1416.84350	0.0601956770
1415.41379	0.0607584678
1413.98408	0.0613063388
1412.55437	0.0618377700
1411.12466	0.0623514131
1409.69495	0.0628370047
1408.26524	0.0632766336
1406.83553	0.0636539981
1405.40582	0.0639584437
1403.97610	0.0641810223
1402.54639	0.0643101335
1401.11668	0.0643338785
1399.68697	0.0642471611
1398.25726	0.0640585721
1396.82755	0.0637922511
1395.39784	0.0634815395
1393.96813	0.0631521344
1392.53842	0.0628058016
1391.10871	0.0624186248
1389.67900	0.0619565770
1388.24928	0.0613994785
1386.81957	0.0607622191
1385.38986	0.0600934625
1383.96015	0.0594455898
1382.53044	0.0588448606
1381.10073	0.0582888648
1379.67102	0.0577667244
1378.24131	0.0572781712
1376.81160	0.0568406172
1375.38189	0.0564819463
1373.95218	0.0562259480
1372.52246	0.0560749136
1371.09275	0.0560024939
1369.66304	0.0559609421
1368.23333	0.0558994338
1366.80362	0.0557840094
1365.37391	0.0556125008
1363.94420	0.0554181524
1362.51449	0.0552575476
1361.08478	0.0551823825
1359.65507	0.0552129224
1358.22536	0.0553336963
1356.79565	0.0555092692
1355.36593	0.0557004809
1353.93622	0.0558756180
1352.50651	0.0560163930
1351.07680	0.0561189465
1349.64709	0.0561895035
1348.21738	0.0562360547
1346.78767	0.0562631637
1345.35796	0.0562721193
1343.92825	0.0562644899
1342.49854	0.0562481061
1341.06883	0.0562403277
1339.63911	0.0562644005
1338.20940	0.0563385151
1336.77969	0.0564656444
1335.34998	0.0566343032
1333.92027	0.0568306148
1332.49056	0.0570474714
1331.06085	0.0572835766
1329.63114	0.0575367399
1328.20143	0.0577988662
1326.77172	0.0580603220
1325.34201	0.0583162196
1323.91229	0.0585705787
1322.48258	0.0588311963
1321.05287	0.0591021702
1319.62316	0.0593797565
1318.19345	0.0596531220
1316.76374	0.0599085055
1315.33403	0.0601358563
1313.90432	0.0603339039
1312.47461	0.0605130605
1311.04490	0.0606920198
1309.61519	0.0608886555
1308.18547	0.0611093640
1306.75576	0.0613460205
1305.32605	0.0615795515
1303.89634	0.0617905259
1302.46663	0.0619679838
1301.03692	0.0621132255
1299.60721	0.0622364134
1298.17750	0.0623502769
1296.74779	0.0624614544
1295.31808	0.0625678748
1293.88837	0.0626627505
1292.45865	0.0627425388
1291.02894	0.0628121793
1289.59923	0.0628819987
1288.16952	0.0629599765
1286.73981	0.0630452111
1285.31010	0.0631299540
1283.88039	0.0632068366
1282.45068	0.0632759109
1281.02097	0.0633457229
1279.59126	0.0634279177
1278.16155	0.0635313392
1276.73183	0.0636582822
1275.30212	0.0638072714
1273.87241	0.0639805496
1272.44270	0.0641887039
1271.01299	0.0644492880
1269.58328	0.0647768900
1268.15357	0.0651755631
1266.72386	0.0656389371
1265.29415	0.0661586374
1263.86444	0.0667315722
1262.43473	0.0673579425
1261.00501	0.0680322126
1259.57530	0.0687365159
1258.14559	0.0694452748
1256.71588	0.0701339543
1255.28617	0.0707837194
1253.85646	0.0713781342
1252.42675	0.0718977302
1250.99704	0.0723198429
1249.56733	0.0726243630
1248.13762	0.0727990866
1246.70791	0.0728414804
1245.27819	0.0727554336
1243.84848	0.0725494996
1242.41877	0.0722372606
1240.98906	0.0718392059
1239.55935	0.0713813379
1238.12964	0.0708907694
1236.69993	0.0703881159
1235.27022	0.0698833391
1233.84051	0.0693762973
1232.41080	0.0688622296
1230.98109	0.0683389232
1229.55137	0.0678086802
1228.12166	0.0672771782
1226.69195	0.0667484775
1225.26224	0.0662214980
1223.83253	0.0656927153
1222.40282	0.0651597679
1220.97311	0.0646254644
1219.54340	0.0640976056
1218.11369	0.0635860264
1216.68398	0.0630982220
1215.25427	0.0626372471
1213.82455	0.0622021481
1212.39484	0.0617918372
1210.96513	0.0614084527
1209.53542	0.0610591918
1208.10571	0.0607554615
1206.67600	0.0605082996
1205.24629	0.0603245944
1203.81658	0.0602066480
1202.38687	0.0601544976
1200.95716	0.0601692721
1199.52745	0.0602549426
1198.09774	0.0604162440
1196.66802	0.0606554970
1195.23831	0.0609698482
1193.80860	0.0613514148
1192.37889	0.0617890321
1190.94918	0.0622716360
1189.51947	0.0627910867
1188.08976	0.0633423701
1186.66005	0.0639210716
1185.23034	0.0645223483
1183.80063	0.0651432276
1182.37092	0.0657872260
1180.94120	0.0664671957
1179.51149	0.0672018752
1178.08178	0.0680048689
1176.65207	0.0688753948
1175.22236	0.0697951466
1173.79265	0.0707356781
1172.36294	0.0716701820
1170.93323	0.0725837648
1169.50352	0.0734782964
1168.07381	0.0743700713
1166.64410	0.0752816573
1165.21438	0.0762322769
1163.78467	0.0772280246
1162.35496	0.0782595947
1160.92525	0.0793061778
1159.49554	0.0803460106
1158.06583	0.0813653842
1156.63612	0.0823624432
1155.20641	0.0833424032
1153.77670	0.0843081847
1152.34699	0.0852536187
1150.91728	0.0861654133
1149.48756	0.0870330706
1148.05785	0.0878624991
1146.62814	0.0886812285
1145.19843	0.0895312503
1143.76872	0.0904547274
1142.33901	0.0914800167
1140.90930	0.0926177502
1139.47959	0.0938661247
1138.04988	0.0952172279
1136.62017	0.0966601521
1135.19046	0.0981798172
1133.76074	0.0997560546
1132.33103	0.1013668031
1130.90132	0.1029942781
1129.47161	0.1046285331
1128.04190	0.1062662154
1126.61219	0.1079056486
1125.18248	0.1095439941
1123.75277	0.1111769453
1122.32306	0.1127991080
1120.89335	0.1144005731
1119.46364	0.1159644872
1118.03392	0.1174696237
1116.60421	0.1189002320
1115.17450	0.1202560738
1113.74479	0.1215518713
1112.31508	0.1228051484
1110.88537	0.1240221709
1109.45566	0.1251948476
1108.02595	0.1263068765
1106.59624	0.1273429692
1105.16653	0.1282878667
1103.73682	0.1291231960
1102.30710	0.1298286468
1100.87739	0.1303950101
1099.44768	0.1308339685
1098.01797	0.1311767995
1096.58826	0.1314571053
1095.15855	0.1316948533
1093.72884	0.1318920255
1092.29913	0.1320389956
1090.86942	0.1321218014
1089.43971	0.1321218461
1088.01000	0.1320147961
1086.58028	0.1317743361
1085.15057	0.1313831806
1083.72086	0.1308377832
1082.29115	0.1301440597
1080.86144	0.1293056011
1079.43173	0.1283177435
1078.00202	0.1271755844
1076.57231	0.1258860976
1075.14260	0.1244761795
1073.71289	0.1229856759
1072.28318	0.1214516088
1070.85346	0.1198963001
1069.42375	0.1183261797
1067.99404	0.1167396680
1066.56433	0.1151332855
1065.13462	0.1135002747
1063.70491	0.1118244231
1062.27520	0.1100785583
1060.84549	0.1082333624
1059.41578	0.1062710732
1057.98607	0.1041935757
1056.55636	0.1020188630
1055.12664	0.0997716561
1053.69693	0.0974801928
1052.26722	0.0951799080
1050.83751	0.0929158106
1049.40780	0.0907340571
1047.97809	0.0886655152
1046.54838	0.0867129341
1045.11867	0.0848553181
1043.68896	0.0830677003
1042.25925	0.0813415051
1040.82954	0.0796916783
1039.39983	0.0781459138
1037.97011	0.0767264217
1036.54040	0.0754368454
1035.11069	0.0742618591
1033.68098	0.0731746480
1032.25127	0.0721466318
1030.82156	0.0711535811
1029.39185	0.0701787993
1027.96214	0.0692147315
1026.53243	0.0682616383
1025.10272	0.0673266277
1023.67301	0.0664229468
1022.24329	0.0655714124
1020.81358	0.0648026690
1019.38387	0.0641535595
1017.95416	0.0636569932
1016.52445	0.0633318871
1015.09474	0.0631782115
1013.66503	0.0631836280
1012.23532	0.0633342862
1010.80561	0.0636223182
1009.37590	0.0640441403
1007.94619	0.0645971969
1006.51647	0.0652756393
1005.08676	0.0660694763
1003.65705	0.0669621304
1002.22734	0.0679281056
1000.79763	0.0689298809
999.36792	0.0699233264
997.93821	0.0708657205
996.50850	0.0717248991
995.07879	0.0724791735
993.64908	0.0731106848
992.21937	0.0735955238
990.78965	0.0739024729
989.35994	0.0740008727
987.93023	0.0738731995
986.50052	0.0735246837
985.07081	0.0729810968
983.64110	0.0722800046
982.21139	0.0714588091
980.78168	0.0705457702
979.35197	0.0695570335
977.92226	0.0685009211
976.49255	0.0673838854
975.06283	0.0662179068
973.63312	0.0650209039
972.20341	0.0638128817
970.77370	0.0626112595
969.34399	0.0614306666
967.91428	0.0602870882
966.48457	0.0592008308
965.05486	0.0581909157
963.62515	0.0572668873
962.19544	0.0564248152
960.76573	0.0556559898
959.33601	0.0549592562
957.90630	0.0543482415
956.47659	0.0538440868
955.04688	0.0534602143
953.61717	0.0531917438
952.18746	0.0530155823
950.75775	0.0529013015
949.32804	0.0528229475
947.89833	0.0527651235
946.46862	0.0527223349
945.03891	0.0526931360
943.60919	0.0526756607
942.17948	0.0526652262
940.74977	0.0526552349
939.32006	0.0526386350
937.89035	0.0526095890
936.46064	0.0525650047
935.03093	0.0525052883
933.60122	0.0524331406
932.17151	0.0523484461
930.74180	0.0522439443
929.31209	0.0521089397
927.88237	0.0519394316
926.45266	0.0517488159
925.02295	0.0515655465
923.59324	0.0514157712
922.16353	0.0513044745
920.73382	0.0512107946
919.30411	0.0511031039
917.87440	0.0509595126
916.44469	0.0507789329
915.01498	0.0505758263
913.58527	0.0503674075
912.15555	0.0501670241
910.72584	0.0499841869
909.29613	0.0498257540
907.86642	0.0496946312
906.43671	0.0495889969
905.00700	0.0495073497
903.57729	0.0494571328
902.14758	0.0494594537
900.71787	0.0495413840
899.28816	0.0497220904
897.85845	0.0500009730
896.42873	0.0503586009
894.99902	0.0507686324
893.56931	0.0512097478
892.13960	0.0516702048
890.70989	0.0521438457
889.28018	0.0526258945
887.85047	0.0531133078
886.42076	0.0536056012
884.99105	0.0541005321
883.56134	0.0545844361
882.13163	0.0550287738
880.70192	0.0554013588
879.27220	0.0556892119
877.84249	0.0559150986
876.41278	0.0561319962
874.98307	0.0563928336
873.55336	0.0567186885
872.12365	0.0570846088
870.69394	0.0574329644
869.26423	0.0577032752
867.83452	0.0578582175
866.40481	0.0578946546
864.97510	0.0578352995
863.54538	0.0577122010
862.11567	0.0575490631
860.68596	0.0573523082
859.25625	0.0571148396
857.82654	0.0568265431
856.39683	0.0564843640
854.96712	0.0560952947
853.53741	0.0556720868
852.10770	0.0552269146
850.67799	0.0547713675
849.24828	0.0543181710
847.81856	0.0538832396
846.38885	0.0534822047
844.95914	0.0531228706
843.52943	0.0528000258
842.09972	0.0524981320
840.67001	0.0522012338
839.24030	0.0519045405
837.81059	0.0516181029
836.38088	0.0513574965
834.95117	0.0511292815
833.52146	0.0509191714
832.09174	0.0506961308
830.66203	0.0504281372
829.23232	0.0500990972
827.80261	0.0497174151
826.37290	0.0493120588
824.94319	0.0489218272
823.51348	0.0485828929
822.08377	0.0483181104
820.65406	0.0481297150
819.22435	0.0480000004
817.79464	0.0479033925
816.36492	0.0478218310
814.93521	0.0477557704
813.50550	0.0477159284
812.07579	0.0477076918
810.64608	0.0477200896
809.21637	0.0477330610
807.78666	0.0477341004
806.35695	0.0477257818
804.92724	0.0477173738
803.49753	0.0477090813
802.06782	0.0476875268
800.63810	0.0476405844
799.20839	0.0475747548
797.77868	0.0475185513
796.34897	0.0475042276
794.91926	0.0475435928
793.48955	0.0476194955
792.05984	0.0477012508
790.63013	0.0477697290
789.20042	0.0478312820
787.77071	0.0479087122
786.34100	0.0480207615
784.91128	0.0481632352
783.48157	0.0483070314
782.05186	0.0484115146
780.62215	0.0484458655
779.19244	0.0484085940
777.76273	0.0483325198
776.33302	0.0482725464
774.90331	0.0482783318
773.47360	0.0483682826
772.04389	0.0485216416
770.61418	0.0486950614
769.18446	0.0488498062
767.75475	0.0489697196
766.32504	0.0490592942
764.89533	0.0491275229
763.46562	0.0491780192
762.03591	0.0492101982
760.60620	0.0492273346
759.17649	0.0492391065
757.74678	0.0492563844
756.31707	0.0492870323
754.88736	0.0493348539
753.45764	0.0494031534
752.02793	0.0494943820
750.59822	0.0496053323
749.16851	0.0497210734
747.73880	0.0498161726
746.30909	0.0498665161
744.87938	0.0498647168
743.44967	0.0498292968
742.01996	0.0497970134
740.59025	0.0498013645
739.16054	0.0498520583
737.73082	0.0499342047
736.30111	0.0500280447
734.87140	0.0501313731
733.44169	0.0502637625
732.01198	0.0504473560
730.58227	0.0506825745
729.15256	0.0509408265
727.72285	0.0511800125
726.29314	0.0513694733
724.86343	0.0515075997
723.43372	0.0516209602
722.00401	0.0517481752
720.57429	0.0519171692
719.14458	0.0521283485
717.71487	0.0523559228
716.28516	0.0525698811
714.85545	0.0527623780
713.42574	0.0529568568
711.99603	0.0531917140
710.56632	0.0534919836
709.13661	0.0538488664
707.70690	0.0542206466
706.27719	0.0545498915
704.84747	0.0547872260
703.41776	0.0549068786
701.98805	0.0549124628
700.55834	0.0548291020
699.12863	0.0546895042
697.69892	0.0545217171
696.26921	0.0543464832
694.83950	0.0541827269
693.40979	0.0540501364
691.98008	0.0539618731
690.55037	0.0539144501
689.12065	0.0538855232
687.69094	0.0538481921
686.26123	0.0537907295
684.83152	0.0537258387
683.40181	0.0536823981
681.97210	0.0536872298
680.54239	0.0537469909
679.11268	0.0538398400
677.68297	0.0539211333
676.25326	0.0539444908
674.82355	0.0538861379
673.39383	0.0537573621
671.96412	0.0536007099
670.53441	0.0534774885
669.10470	0.0534465164
667.67499	0.0535214394
666.24528	0.0536496788
664.81557	0.0537586808
663.38586	0.0538114458
661.95615	0.0538064651
660.52644	0.0537542552
659.09673	0.0536625385
657.66701	0.0535342358
656.23730	0.0533766374
654.80759	0.0532123707
653.37788	0.0530755110
651.94817	0.0529943183
650.51846	0.0529723577
649.08875	0.0529903434
647.65904	0.0530273095
646.22933	0.0530782342
644.79962	0.0531475618
643.36991	0.0532282889
641.94019	0.0532934591
640.51048	0.0533110462
639.08077	0.0532646030
637.65106	0.0531593263
636.22135	0.0530066900
634.79164	0.0528042354
633.36193	0.0525290407
631.93222	0.0521463864
630.50251	0.0516241677
629.07280	0.0509488881
627.64309	0.0501413979
626.21337	0.0492657796
624.78366	0.0484179407
623.35395	0.0476857089
621.92424	0.0471060388
620.49453	0.0466616899
619.06482	0.0463219807
617.63511	0.0460767634
616.20540	0.0459257066
614.77569	0.0458475091
613.34598	0.0457934290
611.91627	0.0457126945
610.48655	0.0455879234
609.05684	0.0454436466
607.62713	0.0453229509
606.19742	0.0452586785
604.76771	0.0452619232
603.33800	0.0453347042
601.90829	0.0454847217
600.47858	0.0457202569
599.04887	0.0460324101
